0.000000 -0.215677
0.001000 -0.211474
0.002000 -0.212418
0.003000 -0.213087
0.004000 -0.215237
0.005000 -0.214195
0.006000 -0.220461
0.007000 -0.217985
0.008000 -0.216668
0.009000 -0.208926
0.010000 -0.214430
0.011000 -0.212519
0.012000 -0.213591
0.013000 -0.202881
0.014000 -0.212639
0.015000 -0.209832
0.016000 -0.211764
0.017000 -0.210638
0.018000 -0.217771
0.019000 -0.203184
0.020000 -0.212205
0.021000 -0.215879
0.022000 -0.210478
0.023000 -0.212263
0.024000 -0.211787
0.025000 -0.210597
0.026000 -0.218601
0.027000 -0.203098
0.028000 -0.215404
0.029000 -0.202354
0.030000 -0.215322
0.031000 -0.204741
0.032000 -0.211122
0.033000 -0.202869
0.034000 -0.212126
0.035000 -0.208122
0.036000 -0.203386
0.037000 -0.205183
0.038000 -0.215995
0.039000 -0.200446
0.040000 -0.205961
0.041000 -0.204131
0.042000 -0.217195
0.043000 -0.202932
0.044000 -0.212462
0.045000 -0.203786
0.046000 -0.205105
0.047000 -0.199557
0.048000 -0.210349
0.049000 -0.207223
0.050000 -0.197595
0.051000 -0.200488
0.052000 -0.201003
0.053000 -0.191243
0.054000 -0.206814
0.055000 -0.198985
0.056000 -0.206793
0.057000 -0.204488
0.058000 -0.217439
0.059000 -0.204374
0.060000 -0.206216
0.061000 -0.199560
0.062000 -0.203970
0.063000 -0.209606
0.064000 -0.209440
0.065000 -0.201921
0.066000 -0.197838
0.067000 -0.203066
0.068000 -0.202618
0.069000 -0.199217
0.070000 -0.205275
0.071000 -0.205368
0.072000 -0.197282
0.073000 -0.196402
0.074000 -0.200082
0.075000 -0.204135
0.076000 -0.197044
0.077000 -0.203135
0.078000 -0.201649
0.079000 -0.199844
0.080000 -0.210452
0.081000 -0.208806
0.082000 -0.207441
0.083000 -0.213153
0.084000 -0.207939
0.085000 -0.202167
0.086000 -0.202974
0.087000 -0.202439
0.088000 -0.207719
0.089000 -0.203630
0.090000 -0.206010
0.091000 -0.200121
0.092000 -0.196824
0.093000 -0.190279
0.094000 -0.198155
0.095000 -0.201606
0.096000 -0.204772
0.097000 -0.206587
0.098000 -0.209847
0.099000 -0.210880
0.100000 -0.223968
0.101000 -0.213810
0.102000 -0.216055
0.103000 -0.213554
0.104000 -0.215631
0.105000 -0.211583
0.106000 -0.219720
0.107000 -0.214294
0.108000 -0.215063
0.109000 -0.213258
0.110000 -0.216171
0.111000 -0.216809
0.112000 -0.198358
0.113000 -0.210062
0.114000 -0.211887
0.115000 -0.210069
0.116000 -0.214545
0.117000 -0.215156
0.118000 -0.212179
0.119000 -0.213461
0.120000 -0.208152
0.121000 -0.221045
0.122000 -0.211901
0.123000 -0.219204
0.124000 -0.215927
0.125000 -0.209242
0.126000 -0.206936
0.127000 -0.213171
0.128000 -0.207607
0.129000 -0.207223
0.130000 -0.214022
0.131000 -0.212601
0.132000 -0.212873
0.133000 -0.210308
0.134000 -0.212229
0.135000 -0.206278
0.136000 -0.207516
0.137000 -0.213704
0.138000 -0.214998
0.139000 -0.219056
0.140000 -0.208253
0.141000 -0.218633
0.142000 -0.221353
0.143000 -0.220361
0.144000 -0.224731
0.145000 -0.216953
0.146000 -0.219770
0.147000 -0.211374
0.148000 -0.194887
0.149000 -0.200438
0.150000 -0.197049
0.151000 -0.207421
0.152000 -0.207776
0.153000 -0.202193
0.154000 -0.193549
0.155000 -0.196331
0.156000 -0.192302
0.157000 -0.197781
0.158000 -0.188330
0.159000 -0.185992
0.160000 -0.191289
0.161000 -0.195836
0.162000 -0.202382
0.163000 -0.198987
0.164000 -0.195510
0.165000 -0.182813
0.166000 -0.181055
0.167000 -0.187084
0.168000 -0.177849
0.169000 -0.174130
0.170000 -0.165545
0.171000 -0.168135
0.172000 -0.178403
0.173000 -0.174657
0.174000 -0.169860
0.175000 -0.168342
0.176000 -0.161467
0.177000 -0.164446
0.178000 -0.155871
0.179000 -0.153757
0.180000 -0.150486
0.181000 -0.147074
0.182000 -0.159952
0.183000 -0.168124
0.184000 -0.176866
0.185000 -0.165464
0.186000 -0.165873
0.187000 -0.167818
0.188000 -0.154530
0.189000 -0.160845
0.190000 -0.163271
0.191000 -0.157316
0.192000 -0.158554
0.193000 -0.161345
0.194000 -0.155789
0.195000 -0.168503
0.196000 -0.158731
0.197000 -0.158048
0.198000 -0.159346
0.199000 -0.158179
0.200000 -0.150757
0.201000 -0.161849
0.202000 -0.164156
0.203000 -0.171431
0.204000 -0.168543
0.205000 -0.173267
0.206000 -0.169881
0.207000 -0.164055
0.208000 -0.156452
0.209000 -0.168346
0.210000 -0.159988
0.211000 -0.163878
0.212000 -0.162649
0.213000 -0.162309
0.214000 -0.176424
0.215000 -0.172794
0.216000 -0.177642
0.217000 -0.178290
0.218000 -0.185661
0.219000 -0.177520
0.220000 -0.187059
0.221000 -0.194394
0.222000 -0.189942
0.223000 -0.206144
0.224000 -0.217004
0.225000 -0.211571
0.226000 -0.211152
0.227000 -0.204284
0.228000 -0.214834
0.229000 -0.217876
0.230000 -0.213710
0.231000 -0.209257
0.232000 -0.209847
0.233000 -0.205908
0.234000 -0.209344
0.235000 -0.217814
0.236000 -0.222230
0.237000 -0.214222
0.238000 -0.225730
0.239000 -0.220000
0.240000 -0.219133
0.241000 -0.228964
0.242000 -0.223786
0.243000 -0.218953
0.244000 -0.230116
0.245000 -0.233370
0.246000 -0.225573
0.247000 -0.224183
0.248000 -0.227448
0.249000 -0.230080
0.250000 -0.222996
0.251000 -0.220419
0.252000 -0.223747
0.253000 -0.214466
0.254000 -0.227139
0.255000 -0.223653
0.256000 -0.224803
0.257000 -0.224990
0.258000 -0.230067
0.259000 -0.229526
0.260000 -0.232532
0.261000 -0.239126
0.262000 -0.231948
0.263000 -0.233184
0.264000 -0.233925
0.265000 -0.229027
0.266000 -0.231573
0.267000 -0.224898
0.268000 -0.230894
0.269000 -0.222617
0.270000 -0.220359
0.271000 -0.228942
0.272000 -0.232131
0.273000 -0.227195
0.274000 -0.230977
0.275000 -0.222328
0.276000 -0.228216
0.277000 -0.229155
0.278000 -0.229578
0.279000 -0.221677
0.280000 -0.236224
0.281000 -0.238583
0.282000 -0.239373
0.283000 -0.235754
0.284000 -0.238530
0.285000 -0.235273
0.286000 -0.233898
0.287000 -0.234720
0.288000 -0.235894
0.289000 -0.231157
0.290000 -0.235687
0.291000 -0.227968
0.292000 -0.236093
0.293000 -0.223769
0.294000 -0.227666
0.295000 -0.226070
0.296000 -0.235489
0.297000 -0.233221
0.298000 -0.229403
0.299000 -0.229078
0.300000 -0.239194
0.301000 -0.234547
0.302000 -0.238915
0.303000 -0.240179
0.304000 -0.236472
0.305000 -0.221546
0.306000 -0.228456
0.307000 -0.230400
0.308000 -0.226787
0.309000 -0.231301
0.310000 -0.239021
0.311000 -0.229401
0.312000 -0.226666
0.313000 -0.237164
0.314000 -0.224500
0.315000 -0.219500
0.316000 -0.222821
0.317000 -0.227580
0.318000 -0.221033
0.319000 -0.223993
0.320000 -0.234652
0.321000 -0.229329
0.322000 -0.235909
0.323000 -0.238253
0.324000 -0.238379
0.325000 -0.226946
0.326000 -0.231651
0.327000 -0.229040
0.328000 -0.215899
0.329000 -0.223446
0.330000 -0.226922
0.331000 -0.225758
0.332000 -0.224413
0.333000 -0.236946
0.334000 -0.239785
0.335000 -0.232506
0.336000 -0.247909
0.337000 -0.255167
0.338000 -0.258970
0.339000 -0.266852
0.340000 -0.281412
0.341000 -0.286075
0.342000 -0.296356
0.343000 -0.301408
0.344000 -0.299827
0.345000 -0.289883
0.346000 -0.291634
0.347000 -0.290817
0.348000 -0.275712
0.349000 -0.257872
0.350000 -0.246529
0.351000 -0.235266
0.352000 -0.226035
0.353000 -0.210001
0.354000 -0.195512
0.355000 -0.174264
0.356000 -0.165459
0.357000 -0.145990
0.358000 -0.116367
0.359000 -0.088720
0.360000 -0.053984
0.361000 -0.039317
0.362000 0.001910
0.363000 0.027058
0.364000 0.066476
0.365000 0.110199
0.366000 0.161592
0.367000 0.187121
0.368000 0.243749
0.369000 0.276191
0.370000 0.301413
0.371000 0.339236
0.372000 0.371474
0.373000 0.385885
0.374000 0.364991
0.375000 0.356627
0.376000 0.332600
0.377000 0.308213
0.378000 0.259537
0.379000 0.230678
0.380000 0.192201
0.381000 0.133911
0.382000 0.088076
0.383000 0.047873
0.384000 0.000441
0.385000 -0.026555
0.386000 -0.070178
0.387000 -0.106271
0.388000 -0.150584
0.389000 -0.162741
0.390000 -0.182113
0.391000 -0.205386
0.392000 -0.221821
0.393000 -0.237846
0.394000 -0.258918
0.395000 -0.253698
0.396000 -0.255625
0.397000 -0.255566
0.398000 -0.258520
0.399000 -0.246332
0.400000 -0.248161
0.401000 -0.248695
0.402000 -0.247962
0.403000 -0.232157
0.404000 -0.232931
0.405000 -0.225065
0.406000 -0.212154
0.407000 -0.209004
0.408000 -0.213034
0.409000 -0.197585
0.410000 -0.203243
0.411000 -0.214588
0.412000 -0.214998
0.413000 -0.209077
0.414000 -0.206336
0.415000 -0.210959
0.416000 -0.218366
0.417000 -0.212418
0.418000 -0.218540
0.419000 -0.218694
0.420000 -0.211848
0.421000 -0.219206
0.422000 -0.227152
0.423000 -0.224749
0.424000 -0.221125
0.425000 -0.219725
0.426000 -0.221891
0.427000 -0.212762
0.428000 -0.227970
0.429000 -0.217048
0.430000 -0.209151
0.431000 -0.212388
0.432000 -0.219696
0.433000 -0.223040
0.434000 -0.211075
0.435000 -0.218007
0.436000 -0.217203
0.437000 -0.218900
0.438000 -0.227812
0.439000 -0.223340
0.440000 -0.210604
0.441000 -0.219892
0.442000 -0.220201
0.443000 -0.230460
0.444000 -0.211653
0.445000 -0.226226
0.446000 -0.223917
0.447000 -0.216332
0.448000 -0.227726
0.449000 -0.220493
0.450000 -0.213624
0.451000 -0.205085
0.452000 -0.208835
0.453000 -0.217693
0.454000 -0.208838
0.455000 -0.224262
0.456000 -0.226621
0.457000 -0.214060
0.458000 -0.220509
0.459000 -0.217029
0.460000 -0.208859
0.461000 -0.215155
0.462000 -0.214749
0.463000 -0.220625
0.464000 -0.214993
0.465000 -0.219121
0.466000 -0.227341
0.467000 -0.220189
0.468000 -0.225187
0.469000 -0.222760
0.470000 -0.217128
0.471000 -0.220597
0.472000 -0.213887
0.473000 -0.214176
0.474000 -0.202518
0.475000 -0.216318
0.476000 -0.215495
0.477000 -0.214542
0.478000 -0.214054
0.479000 -0.226069
0.480000 -0.218015
0.481000 -0.221402
0.482000 -0.212748
0.483000 -0.218408
0.484000 -0.216696
0.485000 -0.220856
0.486000 -0.226240
0.487000 -0.213487
0.488000 -0.210604
0.489000 -0.218759
0.490000 -0.210106
0.491000 -0.213748
0.492000 -0.205617
0.493000 -0.204204
0.494000 -0.206449
0.495000 -0.212136
0.496000 -0.212078
0.497000 -0.198672
0.498000 -0.210229
0.499000 -0.215329
0.500000 -0.210593
0.501000 -0.209808
0.502000 -0.215024
0.503000 -0.218137
0.504000 -0.214372
0.505000 -0.215975
0.506000 -0.215186
0.507000 -0.211804
0.508000 -0.205748
0.509000 -0.217703
0.510000 -0.212629
0.511000 -0.211210
0.512000 -0.204391
0.513000 -0.195438
0.514000 -0.204391
0.515000 -0.206771
0.516000 -0.196854
0.517000 -0.200429
0.518000 -0.204089
0.519000 -0.206856
0.520000 -0.208854
0.521000 -0.210194
0.522000 -0.207373
0.523000 -0.196183
0.524000 -0.204844
0.525000 -0.203721
0.526000 -0.185744
0.527000 -0.199681
0.528000 -0.197316
0.529000 -0.197842
0.530000 -0.195900
0.531000 -0.198813
0.532000 -0.200172
0.533000 -0.196200
0.534000 -0.200070
0.535000 -0.195963
0.536000 -0.186676
0.537000 -0.192595
0.538000 -0.198974
0.539000 -0.199118
0.540000 -0.197597
0.541000 -0.194701
0.542000 -0.196121
0.543000 -0.189829
0.544000 -0.198851
0.545000 -0.191643
0.546000 -0.189379
0.547000 -0.181854
0.548000 -0.178815
0.549000 -0.190310
0.550000 -0.185190
0.551000 -0.182980
0.552000 -0.176746
0.553000 -0.172586
0.554000 -0.184923
0.555000 -0.182778
0.556000 -0.171127
0.557000 -0.176402
0.558000 -0.169486
0.559000 -0.182401
0.560000 -0.178782
0.561000 -0.174842
0.562000 -0.175031
0.563000 -0.168025
0.564000 -0.175762
0.565000 -0.174154
0.566000 -0.166293
0.567000 -0.165310
0.568000 -0.160841
0.569000 -0.159433
0.570000 -0.162474
0.571000 -0.157894
0.572000 -0.155634
0.573000 -0.158677
0.574000 -0.152070
0.575000 -0.148128
0.576000 -0.135644
0.577000 -0.148666
0.578000 -0.137311
0.579000 -0.145904
0.580000 -0.151427
0.581000 -0.140995
0.582000 -0.136507
0.583000 -0.142870
0.584000 -0.142496
0.585000 -0.138231
0.586000 -0.135894
0.587000 -0.131013
0.588000 -0.135128
0.589000 -0.128270
0.590000 -0.130821
0.591000 -0.120244
0.592000 -0.117186
0.593000 -0.114579
0.594000 -0.115779
0.595000 -0.126308
0.596000 -0.121330
0.597000 -0.123853
0.598000 -0.123057
0.599000 -0.127622
0.600000 -0.133218
0.601000 -0.120944
0.602000 -0.116432
0.603000 -0.129767
0.604000 -0.122604
0.605000 -0.127596
0.606000 -0.117977
0.607000 -0.112558
0.608000 -0.118072
0.609000 -0.113341
0.610000 -0.123269
0.611000 -0.109146
0.612000 -0.119859
0.613000 -0.117795
0.614000 -0.118690
0.615000 -0.118679
0.616000 -0.115088
0.617000 -0.121350
0.618000 -0.131934
0.619000 -0.113334
0.620000 -0.132269
0.621000 -0.125928
0.622000 -0.134654
0.623000 -0.137856
0.624000 -0.140112
0.625000 -0.140336
0.626000 -0.135892
0.627000 -0.136962
0.628000 -0.140087
0.629000 -0.136843
0.630000 -0.146244
0.631000 -0.136738
0.632000 -0.149654
0.633000 -0.142478
0.634000 -0.146613
0.635000 -0.161831
0.636000 -0.159397
0.637000 -0.158676
0.638000 -0.169656
0.639000 -0.162293
0.640000 -0.164204
0.641000 -0.168947
0.642000 -0.174354
0.643000 -0.175504
0.644000 -0.176970
0.645000 -0.183506
0.646000 -0.187817
0.647000 -0.175617
0.648000 -0.192862
0.649000 -0.182184
0.650000 -0.190091
0.651000 -0.188454
0.652000 -0.178269
0.653000 -0.188319
0.654000 -0.185734
0.655000 -0.196548
0.656000 -0.194736
0.657000 -0.189315
0.658000 -0.194961
0.659000 -0.195737
0.660000 -0.207752
0.661000 -0.211457
0.662000 -0.211217
0.663000 -0.202738
0.664000 -0.210217
0.665000 -0.217112
0.666000 -0.211971
0.667000 -0.210318
0.668000 -0.203265
0.669000 -0.203267
0.670000 -0.203647
0.671000 -0.206830
0.672000 -0.208646
0.673000 -0.214635
0.674000 -0.208872
0.675000 -0.207273
0.676000 -0.214885
0.677000 -0.203659
0.678000 -0.215002
0.679000 -0.211241
0.680000 -0.221672
0.681000 -0.220823
0.682000 -0.214757
0.683000 -0.224396
0.684000 -0.227949
0.685000 -0.218350
0.686000 -0.214868
0.687000 -0.220992
0.688000 -0.213718
0.689000 -0.216570
0.690000 -0.221149
0.691000 -0.217744
0.692000 -0.209495
0.693000 -0.216289
0.694000 -0.219678
0.695000 -0.217665
0.696000 -0.225263
0.697000 -0.211204
0.698000 -0.213156
0.699000 -0.221148
0.700000 -0.223979
0.701000 -0.230066
0.702000 -0.226324
0.703000 -0.229496
0.704000 -0.227518
0.705000 -0.223815
0.706000 -0.226014
0.707000 -0.219401
0.708000 -0.213980
0.709000 -0.214993
0.710000 -0.218706
0.711000 -0.212086
0.712000 -0.204001
0.713000 -0.213131
0.714000 -0.212977
0.715000 -0.214512
0.716000 -0.214445
0.717000 -0.216020
0.718000 -0.213629
0.719000 -0.220167
0.720000 -0.219377
0.721000 -0.222619
0.722000 -0.213358
0.723000 -0.219297
0.724000 -0.227610
0.725000 -0.223891
0.726000 -0.227494
0.727000 -0.215654
0.728000 -0.213757
0.729000 -0.217386
0.730000 -0.222077
0.731000 -0.217713
0.732000 -0.208128
0.733000 -0.211671
0.734000 -0.218518
0.735000 -0.218529
0.736000 -0.220123
0.737000 -0.218429
0.738000 -0.214922
0.739000 -0.228456
0.740000 -0.223741
0.741000 -0.216221
0.742000 -0.217327
0.743000 -0.210972
0.744000 -0.229585
0.745000 -0.225590
0.746000 -0.221296
0.747000 -0.222345
0.748000 -0.214242
0.749000 -0.214756
0.750000 -0.215318
0.751000 -0.210708
0.752000 -0.210758
0.753000 -0.206443
0.754000 -0.216174
0.755000 -0.209288
0.756000 -0.209605
0.757000 -0.211558
0.758000 -0.217769
0.759000 -0.215340
0.760000 -0.221241
0.761000 -0.216492
0.762000 -0.223043
0.763000 -0.212951
0.764000 -0.217762
0.765000 -0.217810
0.766000 -0.209746
0.767000 -0.213511
0.768000 -0.216223
0.769000 -0.211948
0.770000 -0.210946
0.771000 -0.203643
0.772000 -0.206126
0.773000 -0.209201
0.774000 -0.202820
0.775000 -0.211729
0.776000 -0.206720
0.777000 -0.217463
0.778000 -0.211424
0.779000 -0.209279
0.780000 -0.217855
0.781000 -0.210952
0.782000 -0.216889
0.783000 -0.216381
0.784000 -0.214891
0.785000 -0.203981
0.786000 -0.207472
0.787000 -0.215980
0.788000 -0.208688
0.789000 -0.202394
0.790000 -0.213134
0.791000 -0.198826
0.792000 -0.215094
0.793000 -0.203201
0.794000 -0.203032
0.795000 -0.202159
0.796000 -0.201731
0.797000 -0.208931
0.798000 -0.215319
0.799000 -0.211136
0.800000 -0.213839
0.801000 -0.214755
0.802000 -0.221108
0.803000 -0.219402
0.804000 -0.216469
0.805000 -0.213515
0.806000 -0.210959
0.807000 -0.212196
0.808000 -0.223326
0.809000 -0.207240
0.810000 -0.214162
0.811000 -0.207307
0.812000 -0.208948
0.813000 -0.214847
0.814000 -0.204842
0.815000 -0.200720
0.816000 -0.201915
0.817000 -0.203721
0.818000 -0.207750
0.819000 -0.203681
0.820000 -0.211002
0.821000 -0.214708
0.822000 -0.205662
0.823000 -0.221827
0.824000 -0.221298
0.825000 -0.209878
0.826000 -0.206467
0.827000 -0.205070
0.828000 -0.210566
0.829000 -0.202244
0.830000 -0.206933
0.831000 -0.209574
0.832000 -0.203980
0.833000 -0.206328
0.834000 -0.207843
0.835000 -0.194724
0.836000 -0.201398
0.837000 -0.204976
0.838000 -0.209348
0.839000 -0.197036
0.840000 -0.205462
0.841000 -0.209060
0.842000 -0.210677
0.843000 -0.212278
0.844000 -0.210337
0.845000 -0.207596
0.846000 -0.210338
0.847000 -0.209059
0.848000 -0.212103
0.849000 -0.203459
0.850000 -0.203666
0.851000 -0.208350
0.852000 -0.202064
0.853000 -0.204024
0.854000 -0.211098
0.855000 -0.200335
0.856000 -0.207517
0.857000 -0.211493
0.858000 -0.207191
0.859000 -0.208916
0.860000 -0.207833
0.861000 -0.223028
0.862000 -0.214647
0.863000 -0.213575
0.864000 -0.220566
0.865000 -0.211474
0.866000 -0.208900
0.867000 -0.215168
0.868000 -0.217525
0.869000 -0.206948
0.870000 -0.203111
0.871000 -0.213960
0.872000 -0.202457
0.873000 -0.211527
0.874000 -0.216682
0.875000 -0.215056
0.876000 -0.209977
0.877000 -0.208168
0.878000 -0.213800
0.879000 -0.214048
0.880000 -0.204773
0.881000 -0.212826
0.882000 -0.207822
0.883000 -0.214872
0.884000 -0.217577
0.885000 -0.215421
0.886000 -0.215112
0.887000 -0.219760
0.888000 -0.217220
0.889000 -0.219623
0.890000 -0.214862
0.891000 -0.221116
0.892000 -0.219780
0.893000 -0.210094
0.894000 -0.204936
0.895000 -0.213726
0.896000 -0.207578
0.897000 -0.210285
0.898000 -0.206747
0.899000 -0.214491
0.900000 -0.207024
0.901000 -0.215674
0.902000 -0.219956
0.903000 -0.208133
0.904000 -0.203191
0.905000 -0.208853
0.906000 -0.208960
0.907000 -0.203096
0.908000 -0.195971
0.909000 -0.197266
0.910000 -0.181003
0.911000 -0.197706
0.912000 -0.191087
0.913000 -0.185173
0.914000 -0.179312
0.915000 -0.181312
0.916000 -0.188327
0.917000 -0.181457
0.918000 -0.175879
0.919000 -0.182989
0.920000 -0.179779
0.921000 -0.185859
0.922000 -0.183283
0.923000 -0.187034
0.924000 -0.172207
0.925000 -0.175326
0.926000 -0.171274
0.927000 -0.158478
0.928000 -0.164343
0.929000 -0.164350
0.930000 -0.149495
0.931000 -0.158119
0.932000 -0.155996
0.933000 -0.164970
0.934000 -0.162772
0.935000 -0.170100
0.936000 -0.157582
0.937000 -0.168931
0.938000 -0.168439
0.939000 -0.173658
0.940000 -0.167459
0.941000 -0.179062
0.942000 -0.173265
0.943000 -0.178595
0.944000 -0.174955
0.945000 -0.176993
0.946000 -0.164769
0.947000 -0.168002
0.948000 -0.164761
0.949000 -0.171423
0.950000 -0.159730
0.951000 -0.170195
0.952000 -0.166678
0.953000 -0.161399
0.954000 -0.165315
0.955000 -0.165908
0.956000 -0.165332
0.957000 -0.165854
0.958000 -0.162102
0.959000 -0.167240
0.960000 -0.176303
0.961000 -0.184296
0.962000 -0.173755
0.963000 -0.177787
0.964000 -0.181415
0.965000 -0.178894
0.966000 -0.181961
0.967000 -0.191790
0.968000 -0.191130
0.969000 -0.189255
0.970000 -0.191421
0.971000 -0.195480
0.972000 -0.193656
0.973000 -0.197658
0.974000 -0.207753
0.975000 -0.212267
0.976000 -0.212197
0.977000 -0.223711
0.978000 -0.219076
0.979000 -0.221790
0.980000 -0.233894
0.981000 -0.228802
0.982000 -0.216435
0.983000 -0.221027
0.984000 -0.230950
0.985000 -0.220403
0.986000 -0.223663
0.987000 -0.230445
0.988000 -0.222370
0.989000 -0.220288
0.990000 -0.223752
0.991000 -0.226687
0.992000 -0.214618
0.993000 -0.215726
0.994000 -0.216907
0.995000 -0.220645
0.996000 -0.226628
0.997000 -0.237911
0.998000 -0.226277
0.999000 -0.226144
1.000000 -0.236787
1.001000 -0.234804
1.002000 -0.228153
1.003000 -0.234545
1.004000 -0.233412
1.005000 -0.235488
1.006000 -0.238373
1.007000 -0.241937
1.008000 -0.234711
1.009000 -0.233936
1.010000 -0.226892
1.011000 -0.229000
1.012000 -0.223542
1.013000 -0.227561
1.014000 -0.222227
1.015000 -0.228075
1.016000 -0.234890
1.017000 -0.231773
1.018000 -0.228763
1.019000 -0.227637
1.020000 -0.243455
1.021000 -0.240297
1.022000 -0.229489
1.023000 -0.237050
1.024000 -0.234993
1.025000 -0.235968
1.026000 -0.237317
1.027000 -0.236819
1.028000 -0.238202
1.029000 -0.237404
1.030000 -0.239803
1.031000 -0.239961
1.032000 -0.231696
1.033000 -0.228443
1.034000 -0.224381
1.035000 -0.236990
1.036000 -0.236609
1.037000 -0.227568
1.038000 -0.231133
1.039000 -0.228688
1.040000 -0.242759
1.041000 -0.248049
1.042000 -0.238558
1.043000 -0.246103
1.044000 -0.231668
1.045000 -0.238544
1.046000 -0.240334
1.047000 -0.232070
1.048000 -0.239590
1.049000 -0.239496
1.050000 -0.236884
1.051000 -0.239717
1.052000 -0.237367
1.053000 -0.245720
1.054000 -0.239571
1.055000 -0.232846
1.056000 -0.234580
1.057000 -0.223999
1.058000 -0.231356
1.059000 -0.234346
1.060000 -0.242325
1.061000 -0.244196
1.062000 -0.243998
1.063000 -0.244127
1.064000 -0.250551
1.065000 -0.249300
1.066000 -0.246945
1.067000 -0.238285
1.068000 -0.238869
1.069000 -0.243288
1.070000 -0.237681
1.071000 -0.239213
1.072000 -0.239511
1.073000 -0.233032
1.074000 -0.240060
1.075000 -0.234541
1.076000 -0.241071
1.077000 -0.237067
1.078000 -0.231350
1.079000 -0.239841
1.080000 -0.239757
1.081000 -0.253838
1.082000 -0.255514
1.083000 -0.260369
1.084000 -0.272936
1.085000 -0.270812
1.086000 -0.281356
1.087000 -0.293055
1.088000 -0.292262
1.089000 -0.305031
1.090000 -0.285336
1.091000 -0.299215
1.092000 -0.304377
1.093000 -0.301274
1.094000 -0.300705
1.095000 -0.294563
1.096000 -0.284288
1.097000 -0.262828
1.098000 -0.253223
1.099000 -0.245870
1.100000 -0.233027
1.101000 -0.219997
1.102000 -0.202407
1.103000 -0.186792
1.104000 -0.180577
1.105000 -0.151715
1.106000 -0.125181
1.107000 -0.095534
1.108000 -0.058056
1.109000 -0.032455
1.110000 0.001345
1.111000 0.030460
1.112000 0.075430
1.113000 0.126228
1.114000 0.170476
1.115000 0.197476
1.116000 0.240293
1.117000 0.273847
1.118000 0.308135
1.119000 0.336210
1.120000 0.376874
1.121000 0.358703
1.122000 0.348290
1.123000 0.337699
1.124000 0.300059
1.125000 0.263758
1.126000 0.238332
1.127000 0.195991
1.128000 0.162421
1.129000 0.109648
1.130000 0.068307
1.131000 0.014012
1.132000 -0.012022
1.133000 -0.047756
1.134000 -0.089825
1.135000 -0.133983
1.136000 -0.161340
1.137000 -0.187209
1.138000 -0.202892
1.139000 -0.227907
1.140000 -0.244803
1.141000 -0.266642
1.142000 -0.258717
1.143000 -0.268632
1.144000 -0.276062
1.145000 -0.274287
1.146000 -0.268947
1.147000 -0.277613
1.148000 -0.262918
1.149000 -0.251612
1.150000 -0.250822
1.151000 -0.241054
1.152000 -0.230744
1.153000 -0.216835
1.154000 -0.221632
1.155000 -0.213821
1.156000 -0.213720
1.157000 -0.222978
1.158000 -0.217823
1.159000 -0.217226
1.160000 -0.216154
1.161000 -0.224703
1.162000 -0.214232
1.163000 -0.225846
1.164000 -0.220749
1.165000 -0.230401
1.166000 -0.230582
1.167000 -0.234700
1.168000 -0.235041
1.169000 -0.229489
1.170000 -0.232274
1.171000 -0.231769
1.172000 -0.228738
1.173000 -0.233107
1.174000 -0.230238
1.175000 -0.230115
1.176000 -0.227136
1.177000 -0.230100
1.178000 -0.233789
1.179000 -0.225822
1.180000 -0.232184
1.181000 -0.240164
1.182000 -0.227642
1.183000 -0.234797
1.184000 -0.226678
1.185000 -0.231457
1.186000 -0.229131
1.187000 -0.248627
1.188000 -0.236144
1.189000 -0.229610
1.190000 -0.231413
1.191000 -0.233843
1.192000 -0.225690
1.193000 -0.230485
1.194000 -0.227650
1.195000 -0.223962
1.196000 -0.228313
1.197000 -0.226974
1.198000 -0.233181
1.199000 -0.225575
1.200000 -0.231772
1.201000 -0.236442
1.202000 -0.224750
1.203000 -0.237685
1.204000 -0.234933
1.205000 -0.233548
1.206000 -0.232566
1.207000 -0.236250
1.208000 -0.235904
1.209000 -0.227508
1.210000 -0.230948
1.211000 -0.228546
1.212000 -0.224289
1.213000 -0.237566
1.214000 -0.225423
1.215000 -0.221835
1.216000 -0.221968
1.217000 -0.221832
1.218000 -0.228338
1.219000 -0.221891
1.220000 -0.229915
1.221000 -0.232029
1.222000 -0.229147
1.223000 -0.237205
1.224000 -0.237591
1.225000 -0.236673
1.226000 -0.234637
1.227000 -0.226030
1.228000 -0.233455
1.229000 -0.230089
1.230000 -0.218100
1.231000 -0.230102
1.232000 -0.214662
1.233000 -0.236048
1.234000 -0.229901
1.235000 -0.218671
1.236000 -0.218728
1.237000 -0.209635
1.238000 -0.219827
1.239000 -0.233068
1.240000 -0.217916
1.241000 -0.221059
1.242000 -0.222765
1.243000 -0.223311
1.244000 -0.227212
1.245000 -0.228338
1.246000 -0.222144
1.247000 -0.225765
1.248000 -0.227043
1.249000 -0.226556
1.250000 -0.215514
1.251000 -0.225921
1.252000 -0.221514
1.253000 -0.223240
1.254000 -0.219345
1.255000 -0.212754
1.256000 -0.205732
1.257000 -0.211071
1.258000 -0.210651
1.259000 -0.216448
1.260000 -0.213523
1.261000 -0.227993
1.262000 -0.224848
1.263000 -0.219111
1.264000 -0.223465
1.265000 -0.225176
1.266000 -0.220490
1.267000 -0.220574
1.268000 -0.216809
1.269000 -0.216475
1.270000 -0.216438
1.271000 -0.210633
1.272000 -0.207794
1.273000 -0.202065
1.274000 -0.217102
1.275000 -0.222264
1.276000 -0.203650
1.277000 -0.209244
1.278000 -0.211360
1.279000 -0.213757
1.280000 -0.210371
1.281000 -0.208397
1.282000 -0.213602
1.283000 -0.215754
1.284000 -0.210157
1.285000 -0.224427
1.286000 -0.212480
1.287000 -0.215774
1.288000 -0.206569
1.289000 -0.212070
1.290000 -0.204941
1.291000 -0.203240
1.292000 -0.205502
1.293000 -0.202599
1.294000 -0.199290
1.295000 -0.197483
1.296000 -0.191952
1.297000 -0.194785
1.298000 -0.196808
1.299000 -0.202731
1.300000 -0.200194
1.301000 -0.198145
1.302000 -0.197346
1.303000 -0.197511
1.304000 -0.187233
1.305000 -0.193771
1.306000 -0.191242
1.307000 -0.193334
1.308000 -0.193078
1.309000 -0.185041
1.310000 -0.178952
1.311000 -0.175660
1.312000 -0.186247
1.313000 -0.180337
1.314000 -0.179892
1.315000 -0.176454
1.316000 -0.174363
1.317000 -0.178264
1.318000 -0.178009
1.319000 -0.172252
1.320000 -0.175237
1.321000 -0.166225
1.322000 -0.168591
1.323000 -0.167079
1.324000 -0.166172
1.325000 -0.170999
1.326000 -0.171000
1.327000 -0.163125
1.328000 -0.175890
1.329000 -0.165417
1.330000 -0.172209
1.331000 -0.159360
1.332000 -0.162298
1.333000 -0.160403
1.334000 -0.157774
1.335000 -0.144190
1.336000 -0.146052
1.337000 -0.152024
1.338000 -0.146666
1.339000 -0.146737
1.340000 -0.148385
1.341000 -0.141468
1.342000 -0.143355
1.343000 -0.163048
1.344000 -0.155547
1.345000 -0.148962
1.346000 -0.150692
1.347000 -0.150314
1.348000 -0.148827
1.349000 -0.149688
1.350000 -0.150554
1.351000 -0.138043
1.352000 -0.154943
1.353000 -0.150241
1.354000 -0.139503
1.355000 -0.139040
1.356000 -0.142270
1.357000 -0.141657
1.358000 -0.148159
1.359000 -0.148007
1.360000 -0.154668
1.361000 -0.152502
1.362000 -0.146381
1.363000 -0.151789
1.364000 -0.156281
1.365000 -0.153864
1.366000 -0.164784
1.367000 -0.159999
1.368000 -0.158156
1.369000 -0.159711
1.370000 -0.158225
1.371000 -0.154963
1.372000 -0.162499
1.373000 -0.168693
1.374000 -0.164378
1.375000 -0.166202
1.376000 -0.174895
1.377000 -0.169441
1.378000 -0.173094
1.379000 -0.172290
1.380000 -0.176943
1.381000 -0.185503
1.382000 -0.189813
1.383000 -0.194228
1.384000 -0.203881
1.385000 -0.197654
1.386000 -0.195891
1.387000 -0.196547
1.388000 -0.198154
1.389000 -0.208430
1.390000 -0.202962
1.391000 -0.202119
1.392000 -0.205832
1.393000 -0.205218
1.394000 -0.205812
1.395000 -0.216067
1.396000 -0.221230
1.397000 -0.213774
1.398000 -0.208373
1.399000 -0.218835
1.400000 -0.217179
1.401000 -0.225998
1.402000 -0.224408
1.403000 -0.229447
1.404000 -0.233372
1.405000 -0.232008
1.406000 -0.233988
1.407000 -0.237300
1.408000 -0.230380
1.409000 -0.229843
1.410000 -0.222684
1.411000 -0.233229
1.412000 -0.239899
1.413000 -0.234989
1.414000 -0.230980
1.415000 -0.231593
1.416000 -0.230411
1.417000 -0.239899
1.418000 -0.233622
1.419000 -0.235301
1.420000 -0.225252
1.421000 -0.242574
1.422000 -0.242709
1.423000 -0.234612
1.424000 -0.240599
1.425000 -0.246651
1.426000 -0.248504
1.427000 -0.245730
1.428000 -0.243820
1.429000 -0.246032
1.430000 -0.237445
1.431000 -0.247389
1.432000 -0.252138
1.433000 -0.231734
1.434000 -0.237926
1.435000 -0.241427
1.436000 -0.245264
1.437000 -0.240414
1.438000 -0.229256
1.439000 -0.236268
1.440000 -0.231497
1.441000 -0.236126
1.442000 -0.245608
1.443000 -0.240820
1.444000 -0.244377
1.445000 -0.250893
1.446000 -0.243381
1.447000 -0.248098
1.448000 -0.246085
1.449000 -0.245608
1.450000 -0.247056
1.451000 -0.245852
1.452000 -0.244436
1.453000 -0.237546
1.454000 -0.230479
1.455000 -0.245952
1.456000 -0.235859
1.457000 -0.240893
1.458000 -0.235076
1.459000 -0.242043
1.460000 -0.239609
1.461000 -0.238313
1.462000 -0.247825
1.463000 -0.239761
1.464000 -0.238667
1.465000 -0.253607
1.466000 -0.239334
1.467000 -0.248147
1.468000 -0.237388
1.469000 -0.244817
1.470000 -0.246021
1.471000 -0.238199
1.472000 -0.243120
1.473000 -0.238160
1.474000 -0.238878
1.475000 -0.235657
1.476000 -0.241025
1.477000 -0.248895
1.478000 -0.235247
1.479000 -0.235984
1.480000 -0.237432
1.481000 -0.240115
1.482000 -0.248748
1.483000 -0.244642
1.484000 -0.239765
1.485000 -0.241639
1.486000 -0.244805
1.487000 -0.250450
1.488000 -0.245525
1.489000 -0.240936
1.490000 -0.243457
1.491000 -0.241027
1.492000 -0.243710
1.493000 -0.240418
1.494000 -0.248281
1.495000 -0.239076
1.496000 -0.234600
1.497000 -0.243024
1.498000 -0.233252
1.499000 -0.239459
1.500000 -0.237809
1.501000 -0.235851
1.502000 -0.245873
1.503000 -0.241589
1.504000 -0.243211
1.505000 -0.241064
1.506000 -0.240080
1.507000 -0.249418
1.508000 -0.250447
1.509000 -0.236874
1.510000 -0.247503
1.511000 -0.244346
1.512000 -0.248006
1.513000 -0.246408
1.514000 -0.237953
1.515000 -0.226109
1.516000 -0.227049
1.517000 -0.240789
1.518000 -0.241518
1.519000 -0.232809
1.520000 -0.230420
1.521000 -0.232996
1.522000 -0.244942
1.523000 -0.245334
1.524000 -0.250144
1.525000 -0.243920
1.526000 -0.236638
1.527000 -0.244379
1.528000 -0.248562
1.529000 -0.238924
1.530000 -0.240328
1.531000 -0.228678
1.532000 -0.238254
1.533000 -0.240198
1.534000 -0.243335
1.535000 -0.238016
1.536000 -0.227470
1.537000 -0.236471
1.538000 -0.235056
1.539000 -0.233214
1.540000 -0.226776
1.541000 -0.233129
1.542000 -0.239416
1.543000 -0.241715
1.544000 -0.238140
1.545000 -0.235175
1.546000 -0.236768
1.547000 -0.243449
1.548000 -0.246485
1.549000 -0.234297
1.550000 -0.228073
1.551000 -0.232085
1.552000 -0.231317
1.553000 -0.227609
1.554000 -0.224780
1.555000 -0.229170
1.556000 -0.218909
1.557000 -0.237453
1.558000 -0.235415
1.559000 -0.226405
1.560000 -0.230042
1.561000 -0.236776
1.562000 -0.232010
1.563000 -0.248177
1.564000 -0.240505
1.565000 -0.241084
1.566000 -0.240511
1.567000 -0.244361
1.568000 -0.240515
1.569000 -0.234658
1.570000 -0.229730
1.571000 -0.236145
1.572000 -0.230972
1.573000 -0.234974
1.574000 -0.230542
1.575000 -0.232409
1.576000 -0.232236
1.577000 -0.233914
1.578000 -0.228401
1.579000 -0.230806
1.580000 -0.234741
1.581000 -0.232850
1.582000 -0.229753
1.583000 -0.237019
1.584000 -0.234615
1.585000 -0.240839
1.586000 -0.246486
1.587000 -0.242049
1.588000 -0.239659
1.589000 -0.229666
1.590000 -0.235711
1.591000 -0.237454
1.592000 -0.232149
1.593000 -0.232109
1.594000 -0.229824
1.595000 -0.238053
1.596000 -0.237473
1.597000 -0.227808
1.598000 -0.225957
1.599000 -0.229129
1.600000 -0.233682
1.601000 -0.232687
1.602000 -0.233698
1.603000 -0.229696
1.604000 -0.226015
1.605000 -0.232446
1.606000 -0.251038
1.607000 -0.244345
1.608000 -0.232962
1.609000 -0.235087
1.610000 -0.234705
1.611000 -0.232147
1.612000 -0.239567
1.613000 -0.235974
1.614000 -0.229563
1.615000 -0.240268
1.616000 -0.236299
1.617000 -0.249886
1.618000 -0.231047
1.619000 -0.235024
1.620000 -0.242205
1.621000 -0.234711
1.622000 -0.239956
1.623000 -0.240402
1.624000 -0.239497
1.625000 -0.237030
1.626000 -0.250078
1.627000 -0.254968
1.628000 -0.238913
1.629000 -0.241817
1.630000 -0.243779
1.631000 -0.232279
1.632000 -0.234715
1.633000 -0.242736
1.634000 -0.232827
1.635000 -0.228457
1.636000 -0.220626
1.637000 -0.227966
1.638000 -0.220697
1.639000 -0.221434
1.640000 -0.226898
1.641000 -0.220412
1.642000 -0.219908
1.643000 -0.220537
1.644000 -0.221416
1.645000 -0.217980
1.646000 -0.222272
1.647000 -0.222796
1.648000 -0.214518
1.649000 -0.216252
1.650000 -0.219611
1.651000 -0.201572
1.652000 -0.202826
1.653000 -0.210754
1.654000 -0.206285
1.655000 -0.199296
1.656000 -0.200101
1.657000 -0.201884
1.658000 -0.200750
1.659000 -0.207800
1.660000 -0.202954
1.661000 -0.197088
1.662000 -0.197510
1.663000 -0.198994
1.664000 -0.196755
1.665000 -0.197506
1.666000 -0.190367
1.667000 -0.190427
1.668000 -0.182555
1.669000 -0.178450
1.670000 -0.185210
1.671000 -0.181690
1.672000 -0.184210
1.673000 -0.189432
1.674000 -0.196798
1.675000 -0.190229
1.676000 -0.180334
1.677000 -0.186998
1.678000 -0.189342
1.679000 -0.191836
1.680000 -0.190356
1.681000 -0.195398
1.682000 -0.193352
1.683000 -0.188347
1.684000 -0.199039
1.685000 -0.185172
1.686000 -0.195006
1.687000 -0.189161
1.688000 -0.184206
1.689000 -0.189145
1.690000 -0.186811
1.691000 -0.186103
1.692000 -0.177601
1.693000 -0.180896
1.694000 -0.191094
1.695000 -0.188925
1.696000 -0.179151
1.697000 -0.189598
1.698000 -0.196635
1.699000 -0.190621
1.700000 -0.187271
1.701000 -0.207618
1.702000 -0.194529
1.703000 -0.196054
1.704000 -0.212151
1.705000 -0.214499
1.706000 -0.222860
1.707000 -0.210248
1.708000 -0.219032
1.709000 -0.227325
1.710000 -0.222805
1.711000 -0.227746
1.712000 -0.232754
1.713000 -0.225600
1.714000 -0.235198
1.715000 -0.246374
1.716000 -0.239615
1.717000 -0.237905
1.718000 -0.244267
1.719000 -0.244223
1.720000 -0.241555
1.721000 -0.248848
1.722000 -0.247170
1.723000 -0.232175
1.724000 -0.249566
1.725000 -0.252761
1.726000 -0.256388
1.727000 -0.248646
1.728000 -0.244817
1.729000 -0.246149
1.730000 -0.253058
1.731000 -0.252854
1.732000 -0.248829
1.733000 -0.246309
1.734000 -0.242428
1.735000 -0.246239
1.736000 -0.257348
1.737000 -0.246154
1.738000 -0.250473
1.739000 -0.248176
1.740000 -0.248372
1.741000 -0.252898
1.742000 -0.255792
1.743000 -0.253012
1.744000 -0.247869
1.745000 -0.256169
1.746000 -0.257418
1.747000 -0.253403
1.748000 -0.253592
1.749000 -0.259802
1.750000 -0.251875
1.751000 -0.248995
1.752000 -0.256038
1.753000 -0.247174
1.754000 -0.250508
1.755000 -0.252351
1.756000 -0.256059
1.757000 -0.248039
1.758000 -0.248643
1.759000 -0.253002
1.760000 -0.255377
1.761000 -0.256443
1.762000 -0.263514
1.763000 -0.252557
1.764000 -0.250676
1.765000 -0.258723
1.766000 -0.265236
1.767000 -0.257178
1.768000 -0.257860
1.769000 -0.253352
1.770000 -0.260682
1.771000 -0.254121
1.772000 -0.269104
1.773000 -0.256123
1.774000 -0.250070
1.775000 -0.251959
1.776000 -0.253926
1.777000 -0.246665
1.778000 -0.246326
1.779000 -0.251842
1.780000 -0.252695
1.781000 -0.246730
1.782000 -0.256268
1.783000 -0.249833
1.784000 -0.246180
1.785000 -0.257681
1.786000 -0.256617
1.787000 -0.253788
1.788000 -0.264159
1.789000 -0.256155
1.790000 -0.257079
1.791000 -0.255714
1.792000 -0.260977
1.793000 -0.251250
1.794000 -0.254641
1.795000 -0.244631
1.796000 -0.249520
1.797000 -0.237477
1.798000 -0.247733
1.799000 -0.245997
1.800000 -0.250793
1.801000 -0.254248
1.802000 -0.253156
1.803000 -0.248312
1.804000 -0.253725
1.805000 -0.254049
1.806000 -0.250733
1.807000 -0.248135
1.808000 -0.254819
1.809000 -0.250439
1.810000 -0.256260
1.811000 -0.253070
1.812000 -0.256525
1.813000 -0.255272
1.814000 -0.247107
1.815000 -0.251813
1.816000 -0.252288
1.817000 -0.255970
1.818000 -0.259837
1.819000 -0.268471
1.820000 -0.273895
1.821000 -0.286276
1.822000 -0.291136
1.823000 -0.300148
1.824000 -0.313073
1.825000 -0.317294
1.826000 -0.316304
1.827000 -0.318077
1.828000 -0.311667
1.829000 -0.310395
1.830000 -0.310643
1.831000 -0.312116
1.832000 -0.282322
1.833000 -0.269117
1.834000 -0.259734
1.835000 -0.251222
1.836000 -0.230604
1.837000 -0.213002
1.838000 -0.194306
1.839000 -0.183010
1.840000 -0.176290
1.841000 -0.164985
1.842000 -0.122895
1.843000 -0.096621
1.844000 -0.071928
1.845000 -0.040055
1.846000 -0.005852
1.847000 0.034263
1.848000 0.072666
1.849000 0.108717
1.850000 0.164314
1.851000 0.199849
1.852000 0.242111
1.853000 0.264722
1.854000 0.291837
1.855000 0.325833
1.856000 0.357423
1.857000 0.344484
1.858000 0.343988
1.859000 0.308027
1.860000 0.289958
1.861000 0.247727
1.862000 0.213588
1.863000 0.185038
1.864000 0.122108
1.865000 0.075960
1.866000 0.035598
1.867000 -0.016809
1.868000 -0.046904
1.869000 -0.083014
1.870000 -0.115927
1.871000 -0.162962
1.872000 -0.171889
1.873000 -0.198349
1.874000 -0.224430
1.875000 -0.239463
1.876000 -0.265053
1.877000 -0.272982
1.878000 -0.264187
1.879000 -0.282867
1.880000 -0.278708
1.881000 -0.281814
1.882000 -0.269128
1.883000 -0.269233
1.884000 -0.276882
1.885000 -0.268424
1.886000 -0.257364
1.887000 -0.255239
1.888000 -0.246634
1.889000 -0.245613
1.890000 -0.234519
1.891000 -0.239247
1.892000 -0.231468
1.893000 -0.233205
1.894000 -0.231525
1.895000 -0.231414
1.896000 -0.238077
1.897000 -0.233845
1.898000 -0.226004
1.899000 -0.234332
1.900000 -0.230429
1.901000 -0.236542
1.902000 -0.240906
1.903000 -0.238679
1.904000 -0.237913
1.905000 -0.243163
1.906000 -0.243251
1.907000 -0.239329
1.908000 -0.242870
1.909000 -0.255181
1.910000 -0.240501
1.911000 -0.239091
1.912000 -0.240209
1.913000 -0.237555
1.914000 -0.236728
1.915000 -0.226223
1.916000 -0.241634
1.917000 -0.238054
1.918000 -0.234298
1.919000 -0.238452
1.920000 -0.239364
1.921000 -0.240052
1.922000 -0.241318
1.923000 -0.242062
1.924000 -0.241324
1.925000 -0.240699
1.926000 -0.244530
1.927000 -0.248669
1.928000 -0.241148
1.929000 -0.244022
1.930000 -0.245026
1.931000 -0.240839
1.932000 -0.239878
1.933000 -0.238600
1.934000 -0.228194
1.935000 -0.232049
1.936000 -0.233409
1.937000 -0.229346
1.938000 -0.230617
1.939000 -0.238411
1.940000 -0.239213
1.941000 -0.233756
1.942000 -0.244249
1.943000 -0.236398
1.944000 -0.240389
1.945000 -0.235682
1.946000 -0.234525
1.947000 -0.238405
1.948000 -0.242229
1.949000 -0.251096
1.950000 -0.248406
1.951000 -0.237827
1.952000 -0.246267
1.953000 -0.237840
1.954000 -0.231886
1.955000 -0.234067
1.956000 -0.238821
1.957000 -0.232378
1.958000 -0.236108
1.959000 -0.240063
1.960000 -0.235933
1.961000 -0.237974
1.962000 -0.246115
1.963000 -0.240239
1.964000 -0.241432
1.965000 -0.238333
1.966000 -0.234396
1.967000 -0.234288
1.968000 -0.241879
1.969000 -0.233910
1.970000 -0.239076
1.971000 -0.232289
1.972000 -0.233610
1.973000 -0.221218
1.974000 -0.233358
1.975000 -0.231962
1.976000 -0.230456
1.977000 -0.225195
1.978000 -0.232124
1.979000 -0.227652
1.980000 -0.230717
1.981000 -0.231133
1.982000 -0.241890
1.983000 -0.232825
1.984000 -0.232160
1.985000 -0.242136
1.986000 -0.247284
1.987000 -0.235984
1.988000 -0.236721
1.989000 -0.237113
1.990000 -0.231685
1.991000 -0.230170
1.992000 -0.234754
1.993000 -0.229647
1.994000 -0.225842
1.995000 -0.229121
1.996000 -0.231052
1.997000 -0.227619
1.998000 -0.229144
1.999000 -0.218741
2.000000 -0.226413
2.001000 -0.228072
2.002000 -0.223592
2.003000 -0.230327
2.004000 -0.236132
2.005000 -0.231826
2.006000 -0.239328
2.007000 -0.235098
2.008000 -0.235429
2.009000 -0.224436
2.010000 -0.226583
2.011000 -0.226264
2.012000 -0.219106
2.013000 -0.221426
2.014000 -0.223239
2.015000 -0.221700
2.016000 -0.228385
2.017000 -0.216862
2.018000 -0.217426
2.019000 -0.205244
2.020000 -0.213635
2.021000 -0.220735
2.022000 -0.208062
2.023000 -0.209272
2.024000 -0.221172
2.025000 -0.211861
2.026000 -0.220633
2.027000 -0.224863
2.028000 -0.219252
2.029000 -0.217015
2.030000 -0.214821
2.031000 -0.214562
2.032000 -0.206130
2.033000 -0.204533
2.034000 -0.208816
2.035000 -0.201605
2.036000 -0.212705
2.037000 -0.202240
2.038000 -0.202871
2.039000 -0.195734
2.040000 -0.194544
2.041000 -0.206134
2.042000 -0.196161
2.043000 -0.196754
2.044000 -0.197179
2.045000 -0.189777
2.046000 -0.203858
2.047000 -0.208625
2.048000 -0.200415
2.049000 -0.196452
2.050000 -0.187139
2.051000 -0.190504
2.052000 -0.184505
2.053000 -0.179033
2.054000 -0.186300
2.055000 -0.180128
2.056000 -0.177717
2.057000 -0.179497
2.058000 -0.178853
2.059000 -0.174214
2.060000 -0.170595
2.061000 -0.176874
2.062000 -0.175113
2.063000 -0.167935
2.064000 -0.171944
2.065000 -0.172707
2.066000 -0.166729
2.067000 -0.182567
2.068000 -0.171820
2.069000 -0.166503
2.070000 -0.168506
2.071000 -0.157724
2.072000 -0.159567
2.073000 -0.154624
2.074000 -0.157956
2.075000 -0.153921
2.076000 -0.153306
2.077000 -0.151307
2.078000 -0.163290
2.079000 -0.155920
2.080000 -0.153584
2.081000 -0.154441
2.082000 -0.152178
2.083000 -0.152325
2.084000 -0.163876
2.085000 -0.160775
2.086000 -0.155099
2.087000 -0.147231
2.088000 -0.149088
2.089000 -0.152563
2.090000 -0.152770
2.091000 -0.152125
2.092000 -0.146659
2.093000 -0.141809
2.094000 -0.154715
2.095000 -0.153955
2.096000 -0.150894
2.097000 -0.147228
2.098000 -0.153733
2.099000 -0.148460
2.100000 -0.153046
2.101000 -0.151037
2.102000 -0.158429
2.103000 -0.154549
2.104000 -0.155674
2.105000 -0.162948
2.106000 -0.155573
2.107000 -0.175724
2.108000 -0.181825
2.109000 -0.179472
2.110000 -0.176797
2.111000 -0.171775
2.112000 -0.177641
2.113000 -0.175161
2.114000 -0.174695
2.115000 -0.183856
2.116000 -0.185254
2.117000 -0.180703
2.118000 -0.194049
2.119000 -0.193800
2.120000 -0.193034
2.121000 -0.187443
2.122000 -0.197351
2.123000 -0.198619
2.124000 -0.198729
2.125000 -0.204320
2.126000 -0.204226
2.127000 -0.205384
2.128000 -0.214325
2.129000 -0.217857
2.130000 -0.216916
2.131000 -0.215414
2.132000 -0.221958
2.133000 -0.218058
2.134000 -0.220953
2.135000 -0.220696
2.136000 -0.227245
2.137000 -0.210861
2.138000 -0.222553
2.139000 -0.225434
2.140000 -0.229954
2.141000 -0.222088
2.142000 -0.231515
2.143000 -0.227716
2.144000 -0.221918
2.145000 -0.240665
2.146000 -0.232235
2.147000 -0.234017
2.148000 -0.245971
2.149000 -0.238522
2.150000 -0.239445
2.151000 -0.233057
2.152000 -0.233284
2.153000 -0.245071
2.154000 -0.233085
2.155000 -0.230354
2.156000 -0.235228
2.157000 -0.232356
2.158000 -0.227752
2.159000 -0.231956
2.160000 -0.240010
2.161000 -0.236169
2.162000 -0.231382
2.163000 -0.248659
2.164000 -0.242173
2.165000 -0.243792
2.166000 -0.242638
2.167000 -0.250455
2.168000 -0.246129
2.169000 -0.243271
2.170000 -0.252186
2.171000 -0.244679
2.172000 -0.238523
2.173000 -0.249448
2.174000 -0.236601
2.175000 -0.234793
2.176000 -0.240414
2.177000 -0.238046
2.178000 -0.239239
2.179000 -0.237114
2.180000 -0.246591
2.181000 -0.243535
2.182000 -0.240216
2.183000 -0.251536
2.184000 -0.237407
2.185000 -0.237595
2.186000 -0.246155
2.187000 -0.249231
2.188000 -0.244780
2.189000 -0.242009
2.190000 -0.244332
2.191000 -0.246182
2.192000 -0.238096
2.193000 -0.249842
2.194000 -0.234419
2.195000 -0.236114
2.196000 -0.238985
2.197000 -0.243974
2.198000 -0.243620
2.199000 -0.246016
2.200000 -0.239389
2.201000 -0.237592
2.202000 -0.236687
2.203000 -0.248302
2.204000 -0.236848
2.205000 -0.247295
2.206000 -0.243703
2.207000 -0.245554
2.208000 -0.244796
2.209000 -0.248207
2.210000 -0.231042
2.211000 -0.239660
2.212000 -0.234899
2.213000 -0.244762
2.214000 -0.240105
2.215000 -0.230241
2.216000 -0.226185
2.217000 -0.238204
2.218000 -0.233358
2.219000 -0.234724
2.220000 -0.233883
2.221000 -0.242474
2.222000 -0.237362
2.223000 -0.245511
2.224000 -0.235890
2.225000 -0.241269
2.226000 -0.234532
2.227000 -0.241781
2.228000 -0.243088
2.229000 -0.244023
2.230000 -0.242615
2.231000 -0.245250
2.232000 -0.237625
2.233000 -0.242115
2.234000 -0.233726
2.235000 -0.229141
2.236000 -0.231090
2.237000 -0.233389
2.238000 -0.231054
2.239000 -0.230660
2.240000 -0.234888
2.241000 -0.229211
2.242000 -0.231904
2.243000 -0.239740
2.244000 -0.236668
2.245000 -0.257157
2.246000 -0.254931
2.247000 -0.239534
2.248000 -0.243237
2.249000 -0.239191
2.250000 -0.230378
2.251000 -0.237160
2.252000 -0.241830
2.253000 -0.235500
2.254000 -0.230970
2.255000 -0.236216
2.256000 -0.226194
2.257000 -0.235701
2.258000 -0.229410
2.259000 -0.224646
2.260000 -0.237617
2.261000 -0.230462
2.262000 -0.243062
2.263000 -0.235924
2.264000 -0.229381
2.265000 -0.242816
2.266000 -0.249131
2.267000 -0.237954
2.268000 -0.236397
2.269000 -0.231656
2.270000 -0.232154
2.271000 -0.231476
2.272000 -0.237991
2.273000 -0.225238
2.274000 -0.223591
2.275000 -0.234719
2.276000 -0.239111
2.277000 -0.235518
2.278000 -0.229873
2.279000 -0.223882
2.280000 -0.237314
2.281000 -0.233091
2.282000 -0.234040
2.283000 -0.230925
2.284000 -0.230756
2.285000 -0.247935
2.286000 -0.246542
2.287000 -0.238856
2.288000 -0.238128
2.289000 -0.230421
2.290000 -0.236934
2.291000 -0.235075
2.292000 -0.231419
2.293000 -0.227049
2.294000 -0.225326
2.295000 -0.239059
2.296000 -0.232570
2.297000 -0.231460
2.298000 -0.237654
2.299000 -0.226022
2.300000 -0.230070
2.301000 -0.224117
2.302000 -0.226080
2.303000 -0.234280
2.304000 -0.230295
2.305000 -0.236710
2.306000 -0.238784
2.307000 -0.238999
2.308000 -0.241692
2.309000 -0.235683
2.310000 -0.246584
2.311000 -0.229195
2.312000 -0.237738
2.313000 -0.227124
2.314000 -0.231951
2.315000 -0.233915
2.316000 -0.227363
2.317000 -0.232565
2.318000 -0.244649
2.319000 -0.227974
2.320000 -0.233926
2.321000 -0.235882
2.322000 -0.233764
2.323000 -0.233266
2.324000 -0.231075
2.325000 -0.236459
2.326000 -0.248390
2.327000 -0.238841
2.328000 -0.245167
2.329000 -0.240695
2.330000 -0.242743
2.331000 -0.241569
2.332000 -0.237534
2.333000 -0.228493
2.334000 -0.230914
2.335000 -0.231980
2.336000 -0.231601
2.337000 -0.238836
2.338000 -0.238120
2.339000 -0.232628
2.340000 -0.239068
2.341000 -0.233481
2.342000 -0.231074
2.343000 -0.239741
2.344000 -0.235305
2.345000 -0.227690
2.346000 -0.230718
2.347000 -0.235863
2.348000 -0.241474
2.349000 -0.233517
2.350000 -0.241736
2.351000 -0.237192
2.352000 -0.227918
2.353000 -0.229042
2.354000 -0.233574
2.355000 -0.232818
2.356000 -0.224294
2.357000 -0.215748
2.358000 -0.219657
2.359000 -0.217625
2.360000 -0.218521
2.361000 -0.222950
2.362000 -0.215713
2.363000 -0.222678
2.364000 -0.213659
2.365000 -0.210666
2.366000 -0.210671
2.367000 -0.205966
2.368000 -0.207763
2.369000 -0.214748
2.370000 -0.208962
2.371000 -0.216374
2.372000 -0.207464
2.373000 -0.214784
2.374000 -0.201318
2.375000 -0.198410
2.376000 -0.193990
2.377000 -0.201766
2.378000 -0.192496
2.379000 -0.189351
2.380000 -0.202443
2.381000 -0.193287
2.382000 -0.182153
2.383000 -0.195664
2.384000 -0.181535
2.385000 -0.179262
2.386000 -0.191750
2.387000 -0.182638
2.388000 -0.189663
2.389000 -0.188059
2.390000 -0.187045
2.391000 -0.188670
2.392000 -0.191989
2.393000 -0.202194
2.394000 -0.186354
2.395000 -0.181453
2.396000 -0.188214
2.397000 -0.182429
2.398000 -0.176329
2.399000 -0.189747
2.400000 -0.174486
2.401000 -0.192845
2.402000 -0.184434
2.403000 -0.185689
2.404000 -0.183550
2.405000 -0.190232
2.406000 -0.189898
2.407000 -0.190409
2.408000 -0.189251
2.409000 -0.192917
2.410000 -0.194280
2.411000 -0.191412
2.412000 -0.189460
2.413000 -0.185108
2.414000 -0.182783
2.415000 -0.191334
2.416000 -0.191593
2.417000 -0.196024
2.418000 -0.182293
2.419000 -0.196515
2.420000 -0.191526
2.421000 -0.194995
2.422000 -0.200360
2.423000 -0.205130
2.424000 -0.204102
2.425000 -0.212608
2.426000 -0.221338
2.427000 -0.222663
2.428000 -0.221556
2.429000 -0.228066
2.430000 -0.225744
2.431000 -0.231109
2.432000 -0.237233
2.433000 -0.236291
2.434000 -0.230827
2.435000 -0.240971
2.436000 -0.244241
2.437000 -0.243210
2.438000 -0.232202
2.439000 -0.239690
2.440000 -0.223131
2.441000 -0.232900
2.442000 -0.240546
2.443000 -0.246249
2.444000 -0.239529
2.445000 -0.245065
2.446000 -0.241939
2.447000 -0.255563
2.448000 -0.258909
2.449000 -0.255489
2.450000 -0.251085
2.451000 -0.248001
2.452000 -0.250264
2.453000 -0.245452
2.454000 -0.242711
2.455000 -0.255475
2.456000 -0.245924
2.457000 -0.247794
2.458000 -0.248045
2.459000 -0.252907
2.460000 -0.242719
2.461000 -0.244572
2.462000 -0.254358
2.463000 -0.248568
2.464000 -0.248787
2.465000 -0.263805
2.466000 -0.257827
2.467000 -0.260379
2.468000 -0.270419
2.469000 -0.259474
2.470000 -0.249934
2.471000 -0.256482
2.472000 -0.256595
2.473000 -0.249151
2.474000 -0.244044
2.475000 -0.256385
2.476000 -0.249754
2.477000 -0.248982
2.478000 -0.260078
2.479000 -0.248077
2.480000 -0.255335
2.481000 -0.253041
2.482000 -0.262191
2.483000 -0.254566
2.484000 -0.242402
2.485000 -0.259184
2.486000 -0.260433
2.487000 -0.262441
2.488000 -0.266448
2.489000 -0.262318
2.490000 -0.265069
2.491000 -0.265430
2.492000 -0.264794
2.493000 -0.258294
2.494000 -0.257817
2.495000 -0.259824
2.496000 -0.263485
2.497000 -0.257556
2.498000 -0.254530
2.499000 -0.253261
2.500000 -0.255536
2.501000 -0.255094
2.502000 -0.268704
2.503000 -0.255889
2.504000 -0.251259
2.505000 -0.257958
2.506000 -0.262374
2.507000 -0.257565
2.508000 -0.265167
2.509000 -0.266236
2.510000 -0.258164
2.511000 -0.265031
2.512000 -0.256959
2.513000 -0.252723
2.514000 -0.251161
2.515000 -0.250335
2.516000 -0.261925
2.517000 -0.246482
2.518000 -0.246604
2.519000 -0.262909
2.520000 -0.255241
2.521000 -0.247651
2.522000 -0.261325
2.523000 -0.255931
2.524000 -0.255376
2.525000 -0.259022
2.526000 -0.266613
2.527000 -0.270517
2.528000 -0.265203
2.529000 -0.260412
2.530000 -0.266719
2.531000 -0.256357
2.532000 -0.261652
2.533000 -0.261111
2.534000 -0.257311
2.535000 -0.268531
2.536000 -0.274434
2.537000 -0.280658
2.538000 -0.276600
2.539000 -0.289091
2.540000 -0.301117
2.541000 -0.302816
2.542000 -0.320090
2.543000 -0.322126
2.544000 -0.317442
2.545000 -0.323074
2.546000 -0.328010
2.547000 -0.318359
2.548000 -0.320084
2.549000 -0.301530
2.550000 -0.292945
2.551000 -0.281182
2.552000 -0.270017
2.553000 -0.257063
2.554000 -0.243502
2.555000 -0.226996
2.556000 -0.213304
2.557000 -0.198647
2.558000 -0.178631
2.559000 -0.150527
2.560000 -0.119169
2.561000 -0.083672
2.562000 -0.056317
2.563000 -0.037171
2.564000 0.008546
2.565000 0.044862
2.566000 0.082035
2.567000 0.127228
2.568000 0.153800
2.569000 0.213544
2.570000 0.235799
2.571000 0.270901
2.572000 0.317072
2.573000 0.339763
2.574000 0.341589
2.575000 0.330635
2.576000 0.318453
2.577000 0.298805
2.578000 0.258236
2.579000 0.220097
2.580000 0.176470
2.581000 0.139852
2.582000 0.099408
2.583000 0.048121
2.584000 0.001905
2.585000 -0.045432
2.586000 -0.082798
2.587000 -0.118231
2.588000 -0.154630
2.589000 -0.185555
2.590000 -0.205257
2.591000 -0.226036
2.592000 -0.245884
2.593000 -0.268547
2.594000 -0.266403
2.595000 -0.278461
2.596000 -0.280881
2.597000 -0.275476
2.598000 -0.283409
2.599000 -0.274531
2.600000 -0.281937
2.601000 -0.278954
2.602000 -0.274479
2.603000 -0.277893
2.604000 -0.265762
2.605000 -0.252524
2.606000 -0.240447
2.607000 -0.244742
2.608000 -0.245000
2.609000 -0.244131
2.610000 -0.252875
2.611000 -0.245991
2.612000 -0.236943
2.613000 -0.244976
2.614000 -0.240700
2.615000 -0.242396
2.616000 -0.240419
2.617000 -0.239391
2.618000 -0.239816
2.619000 -0.237745
2.620000 -0.248105
2.621000 -0.248483
2.622000 -0.246781
2.623000 -0.257385
2.624000 -0.248585
2.625000 -0.247372
2.626000 -0.251894
2.627000 -0.251305
2.628000 -0.248697
2.629000 -0.252272
2.630000 -0.260290
2.631000 -0.254485
2.632000 -0.251886
2.633000 -0.251387
2.634000 -0.248588
2.635000 -0.254689
2.636000 -0.250445
2.637000 -0.242450
2.638000 -0.241963
2.639000 -0.252441
2.640000 -0.246309
2.641000 -0.253055
2.642000 -0.249708
2.643000 -0.243111
2.644000 -0.249540
2.645000 -0.247206
2.646000 -0.255042
2.647000 -0.261505
2.648000 -0.255303
2.649000 -0.261145
2.650000 -0.257199
2.651000 -0.253464
2.652000 -0.247031
2.653000 -0.245415
2.654000 -0.251150
2.655000 -0.255054
2.656000 -0.257999
2.657000 -0.255012
2.658000 -0.246462
2.659000 -0.258735
2.660000 -0.249099
2.661000 -0.254382
2.662000 -0.245675
2.663000 -0.237381
2.664000 -0.251326
2.665000 -0.252091
2.666000 -0.253566
2.667000 -0.250783
2.668000 -0.249702
2.669000 -0.255101
2.670000 -0.245912
2.671000 -0.251660
2.672000 -0.250477
2.673000 -0.241611
2.674000 -0.243755
2.675000 -0.244591
2.676000 -0.241887
2.677000 -0.242253
2.678000 -0.250677
2.679000 -0.247462
2.680000 -0.241450
2.681000 -0.238152
2.682000 -0.243236
2.683000 -0.241402
2.684000 -0.245008
2.685000 -0.250929
2.686000 -0.239940
2.687000 -0.244311
2.688000 -0.246439
2.689000 -0.248881
2.690000 -0.251103
2.691000 -0.247320
2.692000 -0.248291
2.693000 -0.233941
2.694000 -0.245143
2.695000 -0.241500
2.696000 -0.235918
2.697000 -0.237416
2.698000 -0.247529
2.699000 -0.238337
2.700000 -0.235575
2.701000 -0.229978
2.702000 -0.237914
2.703000 -0.232419
2.704000 -0.244746
2.705000 -0.236634
2.706000 -0.228917
2.707000 -0.237149
2.708000 -0.239354
2.709000 -0.239250
2.710000 -0.243390
2.711000 -0.236569
2.712000 -0.236370
2.713000 -0.231443
2.714000 -0.245995
2.715000 -0.241478
2.716000 -0.227775
2.717000 -0.227335
2.718000 -0.226731
2.719000 -0.238082
2.720000 -0.228919
2.721000 -0.231303
2.722000 -0.235669
2.723000 -0.229395
2.724000 -0.238648
2.725000 -0.231268
2.726000 -0.230196
2.727000 -0.232481
2.728000 -0.229326
2.729000 -0.226991
2.730000 -0.232912
2.731000 -0.229872
2.732000 -0.231441
2.733000 -0.230587
2.734000 -0.228652
2.735000 -0.236980
2.736000 -0.221373
2.737000 -0.226336
2.738000 -0.218660
2.739000 -0.211789
2.740000 -0.221137
2.741000 -0.217083
2.742000 -0.230134
2.743000 -0.221335
2.744000 -0.220819
2.745000 -0.216081
2.746000 -0.220755
2.747000 -0.218940
2.748000 -0.222660
2.749000 -0.218848
2.750000 -0.223501
2.751000 -0.214352
2.752000 -0.216106
2.753000 -0.218539
2.754000 -0.213724
2.755000 -0.210041
2.756000 -0.209570
2.757000 -0.208244
2.758000 -0.201581
2.759000 -0.202613
2.760000 -0.203661
2.761000 -0.195001
2.762000 -0.200820
2.763000 -0.202072
2.764000 -0.205256
2.765000 -0.198594
2.766000 -0.205152
2.767000 -0.202106
2.768000 -0.201853
2.769000 -0.201176
2.770000 -0.191352
2.771000 -0.192298
2.772000 -0.186646
2.773000 -0.191911
2.774000 -0.188183
2.775000 -0.183148
2.776000 -0.189989
2.777000 -0.179121
2.778000 -0.182369
2.779000 -0.180596
2.780000 -0.173226
2.781000 -0.171126
2.782000 -0.170850
2.783000 -0.174497
2.784000 -0.170242
2.785000 -0.171871
2.786000 -0.177085
2.787000 -0.173967
2.788000 -0.180292
2.789000 -0.172999
2.790000 -0.165426
2.791000 -0.174034
2.792000 -0.168384
2.793000 -0.171992
2.794000 -0.157380
2.795000 -0.163949
2.796000 -0.174450
2.797000 -0.157726
2.798000 -0.159453
2.799000 -0.171102
2.800000 -0.164626
2.801000 -0.154006
2.802000 -0.152458
2.803000 -0.158786
2.804000 -0.154519
2.805000 -0.160897
2.806000 -0.168149
2.807000 -0.154031
2.808000 -0.164787
2.809000 -0.165927
2.810000 -0.156999
2.811000 -0.158192
2.812000 -0.163548
2.813000 -0.162456
2.814000 -0.155804
2.815000 -0.163386
2.816000 -0.153953
2.817000 -0.155772
2.818000 -0.155958
2.819000 -0.166217
2.820000 -0.154108
2.821000 -0.153691
2.822000 -0.163901
2.823000 -0.162570
2.824000 -0.163294
2.825000 -0.171161
2.826000 -0.165082
2.827000 -0.170072
2.828000 -0.179460
2.829000 -0.183175
2.830000 -0.177447
2.831000 -0.182966
2.832000 -0.174304
2.833000 -0.186529
2.834000 -0.184824
2.835000 -0.192729
2.836000 -0.177995
2.837000 -0.182713
2.838000 -0.189278
2.839000 -0.188560
2.840000 -0.187128
2.841000 -0.197619
2.842000 -0.195281
2.843000 -0.202795
2.844000 -0.208834
2.845000 -0.216825
2.846000 -0.212481
2.847000 -0.221551
2.848000 -0.217173
2.849000 -0.221737
2.850000 -0.215690
2.851000 -0.228055
2.852000 -0.227173
2.853000 -0.227380
2.854000 -0.220900
2.855000 -0.229763
2.856000 -0.225137
2.857000 -0.231283
2.858000 -0.230740
2.859000 -0.225347
2.860000 -0.227222
2.861000 -0.234821
2.862000 -0.231357
2.863000 -0.231065
2.864000 -0.241540
2.865000 -0.234378
2.866000 -0.227015
2.867000 -0.250233
2.868000 -0.244751
2.869000 -0.238938
2.870000 -0.245317
2.871000 -0.250680
2.872000 -0.243350
2.873000 -0.244514
2.874000 -0.242008
2.875000 -0.245136
2.876000 -0.244573
2.877000 -0.250104
2.878000 -0.237251
2.879000 -0.238358
2.880000 -0.231331
2.881000 -0.242916
2.882000 -0.240504
2.883000 -0.245582
2.884000 -0.248503
2.885000 -0.246467
2.886000 -0.246655
2.887000 -0.255822
2.888000 -0.257271
2.889000 -0.252012
2.890000 -0.251667
2.891000 -0.261375
2.892000 -0.251999
2.893000 -0.245928
2.894000 -0.248370
2.895000 -0.250902
2.896000 -0.251566
2.897000 -0.251179
2.898000 -0.254426
2.899000 -0.247933
2.900000 -0.239620
2.901000 -0.249036
2.902000 -0.247284
2.903000 -0.244268
2.904000 -0.246363
2.905000 -0.250005
2.906000 -0.251773
2.907000 -0.241767
2.908000 -0.257344
2.909000 -0.265613
2.910000 -0.258403
2.911000 -0.253267
2.912000 -0.251736
2.913000 -0.248204
2.914000 -0.256993
2.915000 -0.249919
2.916000 -0.259420
2.917000 -0.254403
2.918000 -0.241189
2.919000 -0.247553
2.920000 -0.243412
2.921000 -0.245031
2.922000 -0.245606
2.923000 -0.239311
2.924000 -0.256502
2.925000 -0.251498
2.926000 -0.260507
2.927000 -0.248713
2.928000 -0.263498
2.929000 -0.273235
2.930000 -0.260787
2.931000 -0.264404
2.932000 -0.256923
2.933000 -0.246886
2.934000 -0.259231
2.935000 -0.261539
2.936000 -0.260347
2.937000 -0.244645
2.938000 -0.248778
2.939000 -0.256297
2.940000 -0.256456
2.941000 -0.239891
2.942000 -0.247908
2.943000 -0.249169
2.944000 -0.257860
2.945000 -0.259381
2.946000 -0.252340
2.947000 -0.250833
2.948000 -0.252004
2.949000 -0.258396
2.950000 -0.254271
2.951000 -0.252355
2.952000 -0.254611
2.953000 -0.245778
2.954000 -0.249232
2.955000 -0.247732
2.956000 -0.255994
2.957000 -0.250859
2.958000 -0.245840
2.959000 -0.250140
2.960000 -0.251665
2.961000 -0.240493
2.962000 -0.242527
2.963000 -0.247959
2.964000 -0.244192
2.965000 -0.250149
2.966000 -0.247665
2.967000 -0.245359
2.968000 -0.245576
2.969000 -0.255522
2.970000 -0.257759
2.971000 -0.252782
2.972000 -0.249790
2.973000 -0.244630
2.974000 -0.246107
2.975000 -0.252924
2.976000 -0.248591
2.977000 -0.261838
2.978000 -0.244720
2.979000 -0.238915
2.980000 -0.251597
2.981000 -0.250346
2.982000 -0.244367
2.983000 -0.239567
2.984000 -0.242732
2.985000 -0.249379
2.986000 -0.246643
2.987000 -0.246183
2.988000 -0.240202
2.989000 -0.250447
2.990000 -0.248264
2.991000 -0.244181
2.992000 -0.247469
2.993000 -0.245213
2.994000 -0.247337
2.995000 -0.251234
2.996000 -0.238165
2.997000 -0.249705
2.998000 -0.246719
2.999000 -0.232887
3.000000 -0.249381
3.001000 -0.244443
3.002000 -0.243541
3.003000 -0.245355
3.004000 -0.241668
3.005000 -0.241771
3.006000 -0.232642
3.007000 -0.251371
3.008000 -0.248878
3.009000 -0.243804
3.010000 -0.242987
3.011000 -0.244015
3.012000 -0.248171
3.013000 -0.233907
3.014000 -0.238534
3.015000 -0.246339
3.016000 -0.239661
3.017000 -0.243598
3.018000 -0.250221
3.019000 -0.248043
3.020000 -0.240986
3.021000 -0.237748
3.022000 -0.235931
3.023000 -0.243618
3.024000 -0.243453
3.025000 -0.252244
3.026000 -0.238007
3.027000 -0.247184
3.028000 -0.253462
3.029000 -0.254148
3.030000 -0.255115
3.031000 -0.252792
3.032000 -0.243300
3.033000 -0.251132
3.034000 -0.242484
3.035000 -0.251176
3.036000 -0.233488
3.037000 -0.235615
3.038000 -0.245652
3.039000 -0.249691
3.040000 -0.240570
3.041000 -0.246259
3.042000 -0.242563
3.043000 -0.248959
3.044000 -0.242944
3.045000 -0.242570
3.046000 -0.231480
3.047000 -0.240475
3.048000 -0.246735
3.049000 -0.258629
3.050000 -0.241098
3.051000 -0.254351
3.052000 -0.242526
3.053000 -0.252760
3.054000 -0.243426
3.055000 -0.240833
3.056000 -0.237141
3.057000 -0.242513
3.058000 -0.238530
3.059000 -0.232713
3.060000 -0.236440
3.061000 -0.233195
3.062000 -0.236401
3.063000 -0.234019
3.064000 -0.227587
3.065000 -0.233241
3.066000 -0.224818
3.067000 -0.226994
3.068000 -0.227478
3.069000 -0.228344
3.070000 -0.227583
3.071000 -0.225777
3.072000 -0.227891
3.073000 -0.227417
3.074000 -0.221714
3.075000 -0.223985
3.076000 -0.217324
3.077000 -0.217712
3.078000 -0.217969
3.079000 -0.215133
3.080000 -0.210523
3.081000 -0.210906
3.082000 -0.210184
3.083000 -0.212789
3.084000 -0.211708
3.085000 -0.201026
3.086000 -0.204750
3.087000 -0.211956
3.088000 -0.200787
3.089000 -0.193166
3.090000 -0.199923
3.091000 -0.197949
3.092000 -0.208152
3.093000 -0.206790
3.094000 -0.208475
3.095000 -0.200515
3.096000 -0.196129
3.097000 -0.198038
3.098000 -0.199862
3.099000 -0.189324
3.100000 -0.193212
3.101000 -0.201832
3.102000 -0.202220
3.103000 -0.199178
3.104000 -0.203132
3.105000 -0.198161
3.106000 -0.192875
3.107000 -0.202986
3.108000 -0.218223
3.109000 -0.203260
3.110000 -0.205870
3.111000 -0.201004
3.112000 -0.200606
3.113000 -0.195257
3.114000 -0.202705
3.115000 -0.197606
3.116000 -0.187104
3.117000 -0.199884
3.118000 -0.198885
3.119000 -0.188584
3.120000 -0.196603
3.121000 -0.200061
3.122000 -0.201243
3.123000 -0.205175
3.124000 -0.212206
3.125000 -0.194852
3.126000 -0.208833
3.127000 -0.224192
3.128000 -0.224751
3.129000 -0.235779
3.130000 -0.231540
3.131000 -0.216112
3.132000 -0.236675
3.133000 -0.233696
3.134000 -0.243810
3.135000 -0.236143
3.136000 -0.243269
3.137000 -0.253902
3.138000 -0.245119
3.139000 -0.253365
3.140000 -0.253648
3.141000 -0.246846
3.142000 -0.248401
3.143000 -0.247666
3.144000 -0.254387
3.145000 -0.242000
3.146000 -0.255220
3.147000 -0.252228
3.148000 -0.258470
3.149000 -0.263338
3.150000 -0.274360
3.151000 -0.254923
3.152000 -0.268481
3.153000 -0.256649
3.154000 -0.258582
3.155000 -0.249876
3.156000 -0.265900
3.157000 -0.259267
3.158000 -0.260271
3.159000 -0.257835
3.160000 -0.264919
3.161000 -0.260594
3.162000 -0.264563
3.163000 -0.259533
3.164000 -0.268840
3.165000 -0.252766
3.166000 -0.262844
3.167000 -0.264563
3.168000 -0.263097
3.169000 -0.271884
3.170000 -0.272855
3.171000 -0.260056
3.172000 -0.267745
3.173000 -0.261845
3.174000 -0.262659
3.175000 -0.263183
3.176000 -0.261319
3.177000 -0.256644
3.178000 -0.257488
3.179000 -0.262950
3.180000 -0.262904
3.181000 -0.256495
3.182000 -0.274108
3.183000 -0.262744
3.184000 -0.264503
3.185000 -0.265070
3.186000 -0.260169
3.187000 -0.263919
3.188000 -0.263679
3.189000 -0.267887
3.190000 -0.278772
3.191000 -0.279364
3.192000 -0.280222
3.193000 -0.264910
3.194000 -0.262512
3.195000 -0.276444
3.196000 -0.273480
3.197000 -0.268709
3.198000 -0.268424
3.199000 -0.275302
3.200000 -0.277356
3.201000 -0.271055
3.202000 -0.274055
3.203000 -0.272640
3.204000 -0.271963
3.205000 -0.273793
3.206000 -0.274452
3.207000 -0.266517
3.208000 -0.277241
3.209000 -0.271360
3.210000 -0.268277
3.211000 -0.270314
3.212000 -0.277337
3.213000 -0.276952
3.214000 -0.267310
3.215000 -0.271334
3.216000 -0.269349
3.217000 -0.273746
3.218000 -0.273102
3.219000 -0.262943
3.220000 -0.267132
3.221000 -0.266009
3.222000 -0.270175
3.223000 -0.267797
3.224000 -0.265504
3.225000 -0.277526
3.226000 -0.271486
3.227000 -0.271832
3.228000 -0.279037
3.229000 -0.275184
3.230000 -0.265144
3.231000 -0.280618
3.232000 -0.274019
3.233000 -0.269913
3.234000 -0.268638
3.235000 -0.277523
3.236000 -0.274481
3.237000 -0.288028
3.238000 -0.283451
3.239000 -0.293642
3.240000 -0.291178
3.241000 -0.301021
3.242000 -0.319774
3.243000 -0.330823
3.244000 -0.319123
3.245000 -0.333366
3.246000 -0.332979
3.247000 -0.335432
3.248000 -0.332301
3.249000 -0.325272
3.250000 -0.321090
3.251000 -0.310942
3.252000 -0.293557
3.253000 -0.286603
3.254000 -0.278041
3.255000 -0.264842
3.256000 -0.240032
3.257000 -0.238917
3.258000 -0.221874
3.259000 -0.210992
3.260000 -0.180451
3.261000 -0.143945
3.262000 -0.106536
3.263000 -0.085568
3.264000 -0.055670
3.265000 -0.026594
3.266000 0.013262
3.267000 0.040748
3.268000 0.088698
3.269000 0.128522
3.270000 0.169418
3.271000 0.196866
3.272000 0.246603
3.273000 0.276761
3.274000 0.306655
3.275000 0.320708
3.276000 0.320160
3.277000 0.302895
3.278000 0.293121
3.279000 0.249949
3.280000 0.205244
3.281000 0.167258
3.282000 0.136914
3.283000 0.094700
3.284000 0.044172
3.285000 -0.017976
3.286000 -0.052159
3.287000 -0.093616
3.288000 -0.128500
3.289000 -0.170808
3.290000 -0.209193
3.291000 -0.229482
3.292000 -0.234473
3.293000 -0.264437
3.294000 -0.276392
3.295000 -0.287977
3.296000 -0.295235
3.297000 -0.303473
3.298000 -0.305171
3.299000 -0.302166
3.300000 -0.313093
3.301000 -0.307587
3.302000 -0.294728
3.303000 -0.299871
3.304000 -0.300118
3.305000 -0.288594
3.306000 -0.284175
3.307000 -0.281368
3.308000 -0.273429
3.309000 -0.269649
3.310000 -0.275446
3.311000 -0.266800
3.312000 -0.261834
3.313000 -0.263861
3.314000 -0.264470
3.315000 -0.260338
3.316000 -0.253608
3.317000 -0.264798
3.318000 -0.257486
3.319000 -0.252173
3.320000 -0.248749
3.321000 -0.260216
3.322000 -0.249008
3.323000 -0.257365
3.324000 -0.257715
3.325000 -0.249531
3.326000 -0.257885
3.327000 -0.257008
3.328000 -0.259194
3.329000 -0.264510
3.330000 -0.268452
3.331000 -0.267467
3.332000 -0.253048
3.333000 -0.264451
3.334000 -0.271393
3.335000 -0.266049
3.336000 -0.270434
3.337000 -0.263961
3.338000 -0.275118
3.339000 -0.263810
3.340000 -0.259332
3.341000 -0.264339
3.342000 -0.256735
3.343000 -0.252440
3.344000 -0.265329
3.345000 -0.256970
3.346000 -0.261888
3.347000 -0.258230
3.348000 -0.268547
3.349000 -0.273534
3.350000 -0.267852
3.351000 -0.267726
3.352000 -0.267993
3.353000 -0.257650
3.354000 -0.271733
3.355000 -0.259131
3.356000 -0.262616
3.357000 -0.263550
3.358000 -0.270340
3.359000 -0.269871
3.360000 -0.258740
3.361000 -0.268568
3.362000 -0.261286
3.363000 -0.264990
3.364000 -0.270848
3.365000 -0.258263
3.366000 -0.261771
3.367000 -0.266950
3.368000 -0.274135
3.369000 -0.263438
3.370000 -0.267427
3.371000 -0.257997
3.372000 -0.264639
3.373000 -0.261611
3.374000 -0.272624
3.375000 -0.267589
3.376000 -0.257492
3.377000 -0.260301
3.378000 -0.262452
3.379000 -0.278264
3.380000 -0.261198
3.381000 -0.257708
3.382000 -0.253380
3.383000 -0.256537
3.384000 -0.258859
3.385000 -0.253094
3.386000 -0.249920
3.387000 -0.259887
3.388000 -0.255983
3.389000 -0.265546
3.390000 -0.267561
3.391000 -0.250366
3.392000 -0.260268
3.393000 -0.256749
3.394000 -0.255390
3.395000 -0.261809
3.396000 -0.258523
3.397000 -0.263124
3.398000 -0.261296
3.399000 -0.259949
3.400000 -0.250637
3.401000 -0.255630
3.402000 -0.260677
3.403000 -0.257956
3.404000 -0.256916
3.405000 -0.263742
3.406000 -0.256977
3.407000 -0.248322
3.408000 -0.256693
3.409000 -0.255407
3.410000 -0.261821
3.411000 -0.252548
3.412000 -0.257363
3.413000 -0.254074
3.414000 -0.243536
3.415000 -0.258277
3.416000 -0.244319
3.417000 -0.245096
3.418000 -0.246629
3.419000 -0.248175
3.420000 -0.249458
3.421000 -0.240143
3.422000 -0.244174
3.423000 -0.249497
3.424000 -0.240995
3.425000 -0.244441
3.426000 -0.243386
3.427000 -0.240010
3.428000 -0.248597
3.429000 -0.245966
3.430000 -0.253481
3.431000 -0.241854
3.432000 -0.251689
3.433000 -0.249738
3.434000 -0.251079
3.435000 -0.253281
3.436000 -0.243106
3.437000 -0.249150
3.438000 -0.244427
3.439000 -0.243660
3.440000 -0.233963
3.441000 -0.231026
3.442000 -0.245387
3.443000 -0.240826
3.444000 -0.230273
3.445000 -0.242171
3.446000 -0.237703
3.447000 -0.231050
3.448000 -0.237859
3.449000 -0.231222
3.450000 -0.238848
3.451000 -0.230288
3.452000 -0.236161
3.453000 -0.232648
3.454000 -0.227791
3.455000 -0.227998
3.456000 -0.226954
3.457000 -0.228771
3.458000 -0.219923
3.459000 -0.222557
3.460000 -0.215982
3.461000 -0.212084
3.462000 -0.219418
3.463000 -0.212264
3.464000 -0.212739
3.465000 -0.218411
3.466000 -0.211553
3.467000 -0.219041
3.468000 -0.213104
3.469000 -0.206303
3.470000 -0.205411
3.471000 -0.215941
3.472000 -0.216296
3.473000 -0.216512
3.474000 -0.204990
3.475000 -0.204094
3.476000 -0.209208
3.477000 -0.195725
3.478000 -0.201457
3.479000 -0.199785
3.480000 -0.188730
3.481000 -0.192838
3.482000 -0.198113
3.483000 -0.199626
3.484000 -0.189995
3.485000 -0.192276
3.486000 -0.199976
3.487000 -0.184651
3.488000 -0.193285
3.489000 -0.193710
3.490000 -0.175877
3.491000 -0.183897
3.492000 -0.183921
3.493000 -0.192468
3.494000 -0.182837
3.495000 -0.183101
3.496000 -0.189685
3.497000 -0.191483
3.498000 -0.184198
3.499000 -0.182438
3.500000 -0.163031
3.501000 -0.177827
3.502000 -0.172168
3.503000 -0.167355
3.504000 -0.166449
3.505000 -0.164225
3.506000 -0.174451
3.507000 -0.175669
3.508000 -0.180886
3.509000 -0.178470
3.510000 -0.180027
3.511000 -0.183233
3.512000 -0.178783
3.513000 -0.165784
3.514000 -0.187649
3.515000 -0.175093
3.516000 -0.176323
3.517000 -0.183858
3.518000 -0.182336
3.519000 -0.181398
3.520000 -0.180997
3.521000 -0.183611
3.522000 -0.176118
3.523000 -0.173287
3.524000 -0.192793
3.525000 -0.181958
3.526000 -0.188063
3.527000 -0.190437
3.528000 -0.185188
3.529000 -0.203619
3.530000 -0.208504
3.531000 -0.213750
3.532000 -0.212276
3.533000 -0.203536
3.534000 -0.209089
3.535000 -0.217203
3.536000 -0.222797
3.537000 -0.216697
3.538000 -0.210201
3.539000 -0.209875
3.540000 -0.217785
3.541000 -0.214900
3.542000 -0.214343
3.543000 -0.217908
3.544000 -0.211229
3.545000 -0.222719
3.546000 -0.228114
3.547000 -0.234402
3.548000 -0.234291
3.549000 -0.228590
3.550000 -0.240130
3.551000 -0.248337
3.552000 -0.246363
3.553000 -0.238800
3.554000 -0.247075
3.555000 -0.243148
3.556000 -0.243824
3.557000 -0.248614
3.558000 -0.245285
3.559000 -0.238820
3.560000 -0.238960
3.561000 -0.247859
3.562000 -0.247922
3.563000 -0.243639
3.564000 -0.250465
3.565000 -0.263747
3.566000 -0.259890
3.567000 -0.254783
3.568000 -0.254564
3.569000 -0.256570
3.570000 -0.258082
3.571000 -0.263751
3.572000 -0.272501
3.573000 -0.262960
3.574000 -0.258867
3.575000 -0.268272
3.576000 -0.260605
3.577000 -0.263291
3.578000 -0.256900
3.579000 -0.250318
3.580000 -0.256509
3.581000 -0.260397
3.582000 -0.265192
3.583000 -0.261960
3.584000 -0.260095
3.585000 -0.255415
3.586000 -0.257897
3.587000 -0.259434
3.588000 -0.260846
3.589000 -0.264976
3.590000 -0.257240
3.591000 -0.260410
3.592000 -0.274192
3.593000 -0.266489
3.594000 -0.270736
3.595000 -0.276658
3.596000 -0.266129
3.597000 -0.275371
3.598000 -0.272853
3.599000 -0.265090
3.600000 -0.259627
3.601000 -0.252879
3.602000 -0.263472
3.603000 -0.270429
3.604000 -0.265585
3.605000 -0.269763
3.606000 -0.257381
3.607000 -0.267719
3.608000 -0.265492
3.609000 -0.279273
3.610000 -0.265584
3.611000 -0.260375
3.612000 -0.281196
3.613000 -0.275547
3.614000 -0.271578
3.615000 -0.274630
3.616000 -0.257650
3.617000 -0.267807
3.618000 -0.262500
3.619000 -0.269423
3.620000 -0.258148
3.621000 -0.266661
3.622000 -0.264965
3.623000 -0.266010
3.624000 -0.263009
3.625000 -0.266327
3.626000 -0.274492
3.627000 -0.279537
3.628000 -0.276288
3.629000 -0.273596
3.630000 -0.276620
3.631000 -0.264967
3.632000 -0.281354
3.633000 -0.275966
3.634000 -0.265245
3.635000 -0.261930
3.636000 -0.256729
3.637000 -0.266181
3.638000 -0.267547
3.639000 -0.264502
3.640000 -0.262861
3.641000 -0.249086
3.642000 -0.262060
3.643000 -0.266227
3.644000 -0.265801
3.645000 -0.261635
3.646000 -0.256978
3.647000 -0.263246
3.648000 -0.267575
3.649000 -0.262399
3.650000 -0.268293
3.651000 -0.272083
3.652000 -0.272985
3.653000 -0.269806
3.654000 -0.273233
3.655000 -0.267533
3.656000 -0.260764
3.657000 -0.264815
3.658000 -0.262342
3.659000 -0.264319
3.660000 -0.263320
3.661000 -0.256768
3.662000 -0.262199
3.663000 -0.258955
3.664000 -0.263421
3.665000 -0.253548
3.666000 -0.263184
3.667000 -0.259806
3.668000 -0.263154
3.669000 -0.254243
3.670000 -0.256775
3.671000 -0.267032
3.672000 -0.263989
3.673000 -0.262512
3.674000 -0.269763
3.675000 -0.260338
3.676000 -0.267648
3.677000 -0.257381
3.678000 -0.259594
3.679000 -0.256097
3.680000 -0.270476
3.681000 -0.262814
3.682000 -0.257585
3.683000 -0.251252
3.684000 -0.250931
3.685000 -0.249040
3.686000 -0.259940
3.687000 -0.249313
3.688000 -0.263863
3.689000 -0.244800
3.690000 -0.258677
3.691000 -0.264583
3.692000 -0.261037
3.693000 -0.246975
3.694000 -0.258183
3.695000 -0.253350
3.696000 -0.256716
3.697000 -0.252479
3.698000 -0.255683
3.699000 -0.254545
3.700000 -0.248661
3.701000 -0.259067
3.702000 -0.252084
3.703000 -0.245454
3.704000 -0.254158
3.705000 -0.253003
3.706000 -0.248725
3.707000 -0.247999
3.708000 -0.258814
3.709000 -0.253170
3.710000 -0.264843
3.711000 -0.267626
3.712000 -0.265692
3.713000 -0.245017
3.714000 -0.252386
3.715000 -0.260999
3.716000 -0.251494
3.717000 -0.241478
3.718000 -0.246484
3.719000 -0.247317
3.720000 -0.235930
3.721000 -0.237843
3.722000 -0.242394
3.723000 -0.221210
3.724000 -0.228468
3.725000 -0.231198
3.726000 -0.228553
3.727000 -0.226996
3.728000 -0.232647
3.729000 -0.227151
3.730000 -0.234414
3.731000 -0.238141
3.732000 -0.236530
3.733000 -0.231805
3.734000 -0.229130
3.735000 -0.235264
3.736000 -0.216468
3.737000 -0.217806
3.738000 -0.228941
3.739000 -0.229434
3.740000 -0.220385
3.741000 -0.231514
3.742000 -0.232024
3.743000 -0.212443
3.744000 -0.213317
3.745000 -0.226011
3.746000 -0.200257
3.747000 -0.198269
3.748000 -0.202554
3.749000 -0.211675
3.750000 -0.198794
3.751000 -0.209570
3.752000 -0.223373
3.753000 -0.213233
3.754000 -0.206259
3.755000 -0.222702
3.756000 -0.214844
3.757000 -0.213460
3.758000 -0.211996
3.759000 -0.213315
3.760000 -0.205494
3.761000 -0.217385
3.762000 -0.216388
3.763000 -0.199280
3.764000 -0.210075
3.765000 -0.205268
3.766000 -0.202579
3.767000 -0.200910
3.768000 -0.202634
3.769000 -0.210062
3.770000 -0.209446
3.771000 -0.204859
3.772000 -0.217635
3.773000 -0.209886
3.774000 -0.206366
3.775000 -0.209129
3.776000 -0.207162
3.777000 -0.200963
3.778000 -0.206277
3.779000 -0.210294
3.780000 -0.202559
3.781000 -0.212133
3.782000 -0.215321
3.783000 -0.207273
3.784000 -0.208420
3.785000 -0.218894
3.786000 -0.219570
3.787000 -0.219786
3.788000 -0.223067
3.789000 -0.236555
3.790000 -0.235626
3.791000 -0.246751
3.792000 -0.250538
3.793000 -0.250235
3.794000 -0.253090
3.795000 -0.254076
3.796000 -0.268087
3.797000 -0.260391
3.798000 -0.256813
3.799000 -0.268153
3.800000 -0.253217
3.801000 -0.256847
3.802000 -0.255619
3.803000 -0.254800
3.804000 -0.257502
3.805000 -0.255006
3.806000 -0.252263
3.807000 -0.258079
3.808000 -0.257042
3.809000 -0.266368
3.810000 -0.271934
3.811000 -0.268208
3.812000 -0.273172
3.813000 -0.280437
3.814000 -0.275860
3.815000 -0.262055
3.816000 -0.277453
3.817000 -0.269104
3.818000 -0.273742
3.819000 -0.272180
3.820000 -0.271733
3.821000 -0.268775
3.822000 -0.267094
3.823000 -0.264012
3.824000 -0.271615
3.825000 -0.273657
3.826000 -0.274403
3.827000 -0.277923
3.828000 -0.271527
3.829000 -0.276835
3.830000 -0.279721
3.831000 -0.287947
3.832000 -0.280510
3.833000 -0.286329
3.834000 -0.272601
3.835000 -0.273957
3.836000 -0.279277
3.837000 -0.280447
3.838000 -0.263176
3.839000 -0.265873
3.840000 -0.270876
3.841000 -0.271017
3.842000 -0.268819
3.843000 -0.275421
3.844000 -0.274258
3.845000 -0.274468
3.846000 -0.283509
3.847000 -0.276239
3.848000 -0.277115
3.849000 -0.286689
3.850000 -0.278138
3.851000 -0.292082
3.852000 -0.274239
3.853000 -0.281881
3.854000 -0.280749
3.855000 -0.283267
3.856000 -0.273279
3.857000 -0.284911
3.858000 -0.274158
3.859000 -0.271308
3.860000 -0.271374
3.861000 -0.275782
3.862000 -0.268638
3.863000 -0.278482
3.864000 -0.268883
3.865000 -0.271398
3.866000 -0.271412
3.867000 -0.275440
3.868000 -0.269628
3.869000 -0.275666
3.870000 -0.277880
3.871000 -0.282309
3.872000 -0.271059
3.873000 -0.278068
3.874000 -0.277048
3.875000 -0.281597
3.876000 -0.272096
3.877000 -0.278590
3.878000 -0.261919
3.879000 -0.266606
3.880000 -0.262066
3.881000 -0.277227
3.882000 -0.264837
3.883000 -0.271450
3.884000 -0.264436
3.885000 -0.270714
3.886000 -0.266866
3.887000 -0.277054
3.888000 -0.270462
3.889000 -0.274407
3.890000 -0.270795
3.891000 -0.277132
3.892000 -0.267752
3.893000 -0.278163
3.894000 -0.272093
3.895000 -0.270367
3.896000 -0.273380
3.897000 -0.289265
3.898000 -0.282839
3.899000 -0.281411
3.900000 -0.306050
3.901000 -0.301458
3.902000 -0.303332
3.903000 -0.319525
3.904000 -0.312854
3.905000 -0.316138
3.906000 -0.320996
3.907000 -0.335683
3.908000 -0.323973
3.909000 -0.329656
3.910000 -0.328943
3.911000 -0.326081
3.912000 -0.314120
3.913000 -0.307789
3.914000 -0.284695
3.915000 -0.276845
3.916000 -0.263840
3.917000 -0.248402
3.918000 -0.217990
3.919000 -0.209306
3.920000 -0.195777
3.921000 -0.175046
3.922000 -0.148251
3.923000 -0.119820
3.924000 -0.081926
3.925000 -0.055575
3.926000 -0.039195
3.927000 0.012609
3.928000 0.043156
3.929000 0.076783
3.930000 0.114963
3.931000 0.159926
3.932000 0.197079
3.933000 0.229332
3.934000 0.251792
3.935000 0.292340
3.936000 0.317596
3.937000 0.324555
3.938000 0.297570
3.939000 0.277203
3.940000 0.244043
3.941000 0.210799
3.942000 0.159078
3.943000 0.130792
3.944000 0.099521
3.945000 0.050398
3.946000 -0.014765
3.947000 -0.050829
3.948000 -0.082516
3.949000 -0.121478
3.950000 -0.171084
3.951000 -0.206987
3.952000 -0.228722
3.953000 -0.235636
3.954000 -0.257825
3.955000 -0.271943
3.956000 -0.284756
3.957000 -0.282669
3.958000 -0.291913
3.959000 -0.310914
3.960000 -0.313899
3.961000 -0.312886
3.962000 -0.314690
3.963000 -0.311214
3.964000 -0.313811
3.965000 -0.308355
3.966000 -0.313817
3.967000 -0.309011
3.968000 -0.306051
3.969000 -0.293704
3.970000 -0.304582
3.971000 -0.284591
3.972000 -0.279835
3.973000 -0.278794
3.974000 -0.272781
3.975000 -0.260172
3.976000 -0.257217
3.977000 -0.256528
3.978000 -0.260215
3.979000 -0.268511
3.980000 -0.269497
3.981000 -0.273817
3.982000 -0.263456
3.983000 -0.254223
3.984000 -0.263062
3.985000 -0.259329
3.986000 -0.255135
3.987000 -0.268593
3.988000 -0.253441
3.989000 -0.258582
3.990000 -0.273441
3.991000 -0.267985
3.992000 -0.282545
3.993000 -0.265627
3.994000 -0.274578
3.995000 -0.269581
3.996000 -0.273782
3.997000 -0.255777
3.998000 -0.259529
3.999000 -0.261171
4.000000 -0.256499
4.001000 -0.265789
4.002000 -0.266147
4.003000 -0.241664
4.004000 -0.264301
4.005000 -0.266291
4.006000 -0.261626
4.007000 -0.261286
4.008000 -0.264891
4.009000 -0.260484
4.010000 -0.255769
4.011000 -0.279796
4.012000 -0.268934
4.013000 -0.268656
4.014000 -0.265227
4.015000 -0.266769
4.016000 -0.256251
4.017000 -0.266626
4.018000 -0.263844
4.019000 -0.265063
4.020000 -0.249253
4.021000 -0.255242
4.022000 -0.260845
4.023000 -0.255903
4.024000 -0.260324
4.025000 -0.259634
4.026000 -0.249379
4.027000 -0.262271
4.028000 -0.253291
4.029000 -0.249914
4.030000 -0.254491
4.031000 -0.250239
4.032000 -0.266965
4.033000 -0.261234
4.034000 -0.267817
4.035000 -0.271589
4.036000 -0.254094
4.037000 -0.265015
4.038000 -0.259469
4.039000 -0.255004
4.040000 -0.253639
4.041000 -0.262532
4.042000 -0.255578
4.043000 -0.246143
4.044000 -0.255297
4.045000 -0.258500
4.046000 -0.256668
4.047000 -0.264061
4.048000 -0.248466
4.049000 -0.260295
4.050000 -0.258521
4.051000 -0.253284
4.052000 -0.255420
4.053000 -0.260778
4.054000 -0.247014
4.055000 -0.254214
4.056000 -0.244179
4.057000 -0.257275
4.058000 -0.243995
4.059000 -0.243024
4.060000 -0.246549
4.061000 -0.249423
4.062000 -0.251427
4.063000 -0.240365
4.064000 -0.246464
4.065000 -0.248578
4.066000 -0.249188
4.067000 -0.254374
4.068000 -0.244578
4.069000 -0.250930
4.070000 -0.254062
4.071000 -0.251101
4.072000 -0.248885
4.073000 -0.250489
4.074000 -0.243019
4.075000 -0.249883
4.076000 -0.254867
4.077000 -0.245336
4.078000 -0.228017
4.079000 -0.239146
4.080000 -0.245622
4.081000 -0.240239
4.082000 -0.233752
4.083000 -0.238833
4.084000 -0.233803
4.085000 -0.242512
4.086000 -0.240355
4.087000 -0.232927
4.088000 -0.225959
4.089000 -0.238803
4.090000 -0.243766
4.091000 -0.231043
4.092000 -0.233130
4.093000 -0.235180
4.094000 -0.233053
4.095000 -0.237607
4.096000 -0.244331
4.097000 -0.236958
4.098000 -0.236878
4.099000 -0.238613
4.100000 -0.240050
4.101000 -0.250277
4.102000 -0.235780
4.103000 -0.235185
4.104000 -0.225971
4.105000 -0.220159
4.106000 -0.222422
4.107000 -0.225961
4.108000 -0.226067
4.109000 -0.228690
4.110000 -0.231910
4.111000 -0.228853
4.112000 -0.231069
4.113000 -0.219489
4.114000 -0.225575
4.115000 -0.224274
4.116000 -0.230990
4.117000 -0.222488
4.118000 -0.222576
4.119000 -0.222034
4.120000 -0.224593
4.121000 -0.220825
4.122000 -0.202060
4.123000 -0.225578
4.124000 -0.209131
4.125000 -0.216525
4.126000 -0.206260
4.127000 -0.189893
4.128000 -0.199607
4.129000 -0.204686
4.130000 -0.196568
4.131000 -0.208390
4.132000 -0.204234
4.133000 -0.203992
4.134000 -0.190686
4.135000 -0.195535
4.136000 -0.198554
4.137000 -0.186838
4.138000 -0.190962
4.139000 -0.198883
4.140000 -0.190087
4.141000 -0.192170
4.142000 -0.194987
4.143000 -0.195547
4.144000 -0.179117
4.145000 -0.173112
4.146000 -0.182013
4.147000 -0.176163
4.148000 -0.183890
4.149000 -0.186017
4.150000 -0.176274
4.151000 -0.178624
4.152000 -0.179571
4.153000 -0.173218
4.154000 -0.169229
4.155000 -0.174847
4.156000 -0.171858
4.157000 -0.170127
4.158000 -0.162775
4.159000 -0.170538
4.160000 -0.172528
4.161000 -0.161438
4.162000 -0.169763
4.163000 -0.167299
4.164000 -0.169182
4.165000 -0.160570
4.166000 -0.161297
4.167000 -0.165930
4.168000 -0.168655
4.169000 -0.167069
4.170000 -0.162697
4.171000 -0.149821
4.172000 -0.161414
4.173000 -0.168862
4.174000 -0.172275
4.175000 -0.164073
4.176000 -0.162002
4.177000 -0.169457
4.178000 -0.151034
4.179000 -0.166288
4.180000 -0.149003
4.181000 -0.149943
4.182000 -0.158498
4.183000 -0.162548
4.184000 -0.160878
4.185000 -0.164391
4.186000 -0.171708
4.187000 -0.169443
4.188000 -0.180774
4.189000 -0.185039
4.190000 -0.189552
4.191000 -0.188597
4.192000 -0.197033
4.193000 -0.188951
4.194000 -0.206094
4.195000 -0.190578
4.196000 -0.194013
4.197000 -0.202042
4.198000 -0.200496
4.199000 -0.195810
4.200000 -0.194114
4.201000 -0.185865
4.202000 -0.192641
4.203000 -0.198751
4.204000 -0.191628
4.205000 -0.192905
4.206000 -0.186106
4.207000 -0.208924
4.208000 -0.205851
4.209000 -0.218967
4.210000 -0.219183
4.211000 -0.214421
4.212000 -0.216414
4.213000 -0.238014
4.214000 -0.232843
4.215000 -0.233594
4.216000 -0.227360
4.217000 -0.236570
4.218000 -0.228836
4.219000 -0.238634
4.220000 -0.224821
4.221000 -0.233080
4.222000 -0.229863
4.223000 -0.238272
4.224000 -0.240384
4.225000 -0.219532
4.226000 -0.235335
4.227000 -0.235747
4.228000 -0.228671
4.229000 -0.224767
4.230000 -0.241399
4.231000 -0.242305
4.232000 -0.229580
4.233000 -0.246998
4.234000 -0.240660
4.235000 -0.237957
4.236000 -0.248770
4.237000 -0.232428
4.238000 -0.237935
4.239000 -0.241404
4.240000 -0.239222
4.241000 -0.243299
4.242000 -0.240973
4.243000 -0.235315
4.244000 -0.241681
4.245000 -0.240629
4.246000 -0.231995
4.247000 -0.234857
4.248000 -0.249586
4.249000 -0.241679
4.250000 -0.251458
4.251000 -0.247365
4.252000 -0.235699
4.253000 -0.243966
4.254000 -0.242101
4.255000 -0.246862
4.256000 -0.253937
4.257000 -0.248803
4.258000 -0.246073
4.259000 -0.246311
4.260000 -0.256439
4.261000 -0.260596
4.262000 -0.250808
4.263000 -0.249384
4.264000 -0.245419
4.265000 -0.243648
4.266000 -0.249124
4.267000 -0.244210
4.268000 -0.251896
4.269000 -0.242833
4.270000 -0.243160
4.271000 -0.237508
4.272000 -0.240185
4.273000 -0.237544
4.274000 -0.243124
4.275000 -0.237774
4.276000 -0.241052
4.277000 -0.230339
4.278000 -0.249252
4.279000 -0.241004
4.280000 -0.245745
4.281000 -0.242405
4.282000 -0.246416
4.283000 -0.248921
4.284000 -0.244639
4.285000 -0.246696
4.286000 -0.255259
4.287000 -0.245041
4.288000 -0.242235
4.289000 -0.237425
4.290000 -0.238204
4.291000 -0.241626
4.292000 -0.242462
4.293000 -0.236297
4.294000 -0.229238
4.295000 -0.242387
4.296000 -0.236578
4.297000 -0.243849
4.298000 -0.246355
4.299000 -0.233636
4.300000 -0.242214
4.301000 -0.238384
4.302000 -0.245961
4.303000 -0.240622
4.304000 -0.244784
4.305000 -0.231219
4.306000 -0.240112
4.307000 -0.234821
4.308000 -0.236348
4.309000 -0.237167
4.310000 -0.233747
4.311000 -0.236308
4.312000 -0.250469
4.313000 -0.227930
4.314000 -0.229588
4.315000 -0.235144
4.316000 -0.236937
4.317000 -0.228321
4.318000 -0.232701
4.319000 -0.236121
4.320000 -0.231585
4.321000 -0.237156
4.322000 -0.234986
4.323000 -0.231140
4.324000 -0.233881
4.325000 -0.226050
4.326000 -0.221633
4.327000 -0.238889
4.328000 -0.235149
4.329000 -0.232183
4.330000 -0.233461
4.331000 -0.229765
4.332000 -0.239844
4.333000 -0.239106
4.334000 -0.242565
4.335000 -0.229742
4.336000 -0.226483
4.337000 -0.236512
4.338000 -0.224022
4.339000 -0.222275
4.340000 -0.222215
4.341000 -0.216711
4.342000 -0.217044
4.343000 -0.214293
4.344000 -0.222898
4.345000 -0.217345
4.346000 -0.210784
4.347000 -0.232555
4.348000 -0.216345
4.349000 -0.206625
4.350000 -0.217518
4.351000 -0.225300
4.352000 -0.221133
4.353000 -0.224890
4.354000 -0.220219
4.355000 -0.223580
4.356000 -0.206432
4.357000 -0.216990
4.358000 -0.209708
4.359000 -0.204463
4.360000 -0.204017
4.361000 -0.204608
4.362000 -0.191385
4.363000 -0.189914
4.364000 -0.187924
4.365000 -0.193026
4.366000 -0.179328
4.367000 -0.189188
4.368000 -0.186433
4.369000 -0.179495
4.370000 -0.199975
4.371000 -0.189384
4.372000 -0.185016
4.373000 -0.172108
4.374000 -0.181850
4.375000 -0.191234
4.376000 -0.181559
4.377000 -0.191609
4.378000 -0.178769
4.379000 -0.174183
4.380000 -0.180975
4.381000 -0.187991
4.382000 -0.180204
4.383000 -0.170058
4.384000 -0.173424
4.385000 -0.183348
4.386000 -0.164382
4.387000 -0.184936
4.388000 -0.171718
4.389000 -0.173373
4.390000 -0.183847
4.391000 -0.183064
4.392000 -0.187898
4.393000 -0.177714
4.394000 -0.171726
4.395000 -0.181258
4.396000 -0.177170
4.397000 -0.175670
4.398000 -0.182801
4.399000 -0.172890
4.400000 -0.180840
4.401000 -0.174099
4.402000 -0.176447
4.403000 -0.162461
4.404000 -0.164600
4.405000 -0.172422
4.406000 -0.173375
4.407000 -0.181118
4.408000 -0.175614
4.409000 -0.176538
4.410000 -0.189771
4.411000 -0.195121
4.412000 -0.201187
4.413000 -0.205009
4.414000 -0.202536
4.415000 -0.216408
4.416000 -0.205896
4.417000 -0.202898
4.418000 -0.205893
4.419000 -0.201906
4.420000 -0.217384
4.421000 -0.220060
4.422000 -0.237443
4.423000 -0.223526
4.424000 -0.221280
4.425000 -0.232912
4.426000 -0.239778
4.427000 -0.221481
4.428000 -0.237731
4.429000 -0.225508
4.430000 -0.236639
4.431000 -0.237227
4.432000 -0.238769
4.433000 -0.258418
4.434000 -0.227354
4.435000 -0.232570
4.436000 -0.229011
4.437000 -0.229675
4.438000 -0.233809
4.439000 -0.227634
4.440000 -0.234700
4.441000 -0.226650
4.442000 -0.235643
4.443000 -0.242446
4.444000 -0.226953
4.445000 -0.230074
4.446000 -0.250236
4.447000 -0.240345
4.448000 -0.246036
4.449000 -0.236840
4.450000 -0.245376
4.451000 -0.250395
4.452000 -0.252933
4.453000 -0.267850
4.454000 -0.245035
4.455000 -0.251397
4.456000 -0.249276
4.457000 -0.253034
4.458000 -0.249053
4.459000 -0.239184
4.460000 -0.243349
4.461000 -0.238729
4.462000 -0.238389
4.463000 -0.240714
4.464000 -0.230312
4.465000 -0.232023
4.466000 -0.242069
4.467000 -0.244005
4.468000 -0.242653
4.469000 -0.233689
4.470000 -0.254252
4.471000 -0.238976
4.472000 -0.244476
4.473000 -0.258664
4.474000 -0.262186
4.475000 -0.240816
4.476000 -0.253955
4.477000 -0.256705
4.478000 -0.248534
4.479000 -0.242327
4.480000 -0.244223
4.481000 -0.244319
4.482000 -0.245617
4.483000 -0.238473
4.484000 -0.242573
4.485000 -0.241508
4.486000 -0.239790
4.487000 -0.244380
4.488000 -0.237252
4.489000 -0.240301
4.490000 -0.244884
4.491000 -0.244056
4.492000 -0.247647
4.493000 -0.255750
4.494000 -0.248381
4.495000 -0.246582
4.496000 -0.254102
4.497000 -0.250337
4.498000 -0.236037
4.499000 -0.241288
4.500000 -0.241209
4.501000 -0.241334
4.502000 -0.236552
4.503000 -0.241911
4.504000 -0.238859
4.505000 -0.236163
4.506000 -0.236490
4.507000 -0.249574
4.508000 -0.241791
4.509000 -0.234568
4.510000 -0.238574
4.511000 -0.246639
4.512000 -0.244855
4.513000 -0.244702
4.514000 -0.244215
4.515000 -0.244289
4.516000 -0.249606
4.517000 -0.251703
4.518000 -0.252996
4.519000 -0.242548
4.520000 -0.235442
4.521000 -0.246487
4.522000 -0.245690
4.523000 -0.233866
4.524000 -0.237439
4.525000 -0.248593
4.526000 -0.248586
4.527000 -0.260985
4.528000 -0.262118
4.529000 -0.275570
4.530000 -0.284058
4.531000 -0.302637
4.532000 -0.306009
4.533000 -0.303039
4.534000 -0.304574
4.535000 -0.309927
4.536000 -0.303778
4.537000 -0.301556
4.538000 -0.293911
4.539000 -0.288225
4.540000 -0.263438
4.541000 -0.260778
4.542000 -0.245532
4.543000 -0.231276
4.544000 -0.203474
4.545000 -0.193827
4.546000 -0.178946
4.547000 -0.164157
4.548000 -0.148937
4.549000 -0.130699
4.550000 -0.084576
4.551000 -0.078896
4.552000 -0.046603
4.553000 -0.015884
4.554000 0.026359
4.555000 0.052598
4.556000 0.090143
4.557000 0.133724
4.558000 0.181545
4.559000 0.223964
4.560000 0.248654
4.561000 0.279580
4.562000 0.318964
4.563000 0.363495
4.564000 0.379656
4.565000 0.363261
4.566000 0.339499
4.567000 0.314084
4.568000 0.265723
4.569000 0.221939
4.570000 0.188297
4.571000 0.157003
4.572000 0.106179
4.573000 0.057538
4.574000 -0.001218
4.575000 -0.047718
4.576000 -0.085576
4.577000 -0.114084
4.578000 -0.155409
4.579000 -0.189176
4.580000 -0.207127
4.581000 -0.220763
4.582000 -0.232576
4.583000 -0.242173
4.584000 -0.253142
4.585000 -0.255630
4.586000 -0.269041
4.587000 -0.268348
4.588000 -0.282043
4.589000 -0.284517
4.590000 -0.276373
4.591000 -0.276278
4.592000 -0.276628
4.593000 -0.285661
4.594000 -0.276523
4.595000 -0.285908
4.596000 -0.285773
4.597000 -0.265378
4.598000 -0.263926
4.599000 -0.251496
4.600000 -0.255206
4.601000 -0.238842
4.602000 -0.239886
4.603000 -0.238011
4.604000 -0.224632
4.605000 -0.243029
4.606000 -0.227475
4.607000 -0.223282
4.608000 -0.238506
4.609000 -0.229036
4.610000 -0.234131
4.611000 -0.230106
4.612000 -0.229191
4.613000 -0.251493
4.614000 -0.235088
4.615000 -0.231714
4.616000 -0.237013
4.617000 -0.235753
4.618000 -0.233872
4.619000 -0.243518
4.620000 -0.234001
4.621000 -0.229570
4.622000 -0.229448
4.623000 -0.230213
4.624000 -0.230979
4.625000 -0.228916
4.626000 -0.233021
4.627000 -0.221645
4.628000 -0.224873
4.629000 -0.234252
4.630000 -0.229828
4.631000 -0.226052
4.632000 -0.229862
4.633000 -0.243190
4.634000 -0.239290
4.635000 -0.235309
4.636000 -0.233703
4.637000 -0.233796
4.638000 -0.225902
4.639000 -0.239573
4.640000 -0.240679
4.641000 -0.222367
4.642000 -0.221937
4.643000 -0.224749
4.644000 -0.236726
4.645000 -0.222790
4.646000 -0.227063
4.647000 -0.229834
4.648000 -0.219461
4.649000 -0.232573
4.650000 -0.224101
4.651000 -0.217224
4.652000 -0.212991
4.653000 -0.225454
4.654000 -0.224662
4.655000 -0.221027
4.656000 -0.227181
4.657000 -0.223206
4.658000 -0.218923
4.659000 -0.224918
4.660000 -0.222924
4.661000 -0.219022
4.662000 -0.219837
4.663000 -0.229904
4.664000 -0.222604
4.665000 -0.210532
4.666000 -0.215809
4.667000 -0.224280
4.668000 -0.220192
4.669000 -0.218709
4.670000 -0.232884
4.671000 -0.231594
4.672000 -0.227283
4.673000 -0.217549
4.674000 -0.230928
4.675000 -0.220534
4.676000 -0.218278
4.677000 -0.228646
4.678000 -0.219335
4.679000 -0.219435
4.680000 -0.222233
4.681000 -0.222388
4.682000 -0.216930
4.683000 -0.213255
4.684000 -0.213762
4.685000 -0.198219
4.686000 -0.207407
4.687000 -0.220900
4.688000 -0.213327
4.689000 -0.224083
4.690000 -0.224948
4.691000 -0.221622
4.692000 -0.223466
4.693000 -0.220892
4.694000 -0.222859
4.695000 -0.222635
4.696000 -0.218451
4.697000 -0.221427
4.698000 -0.223413
4.699000 -0.223361
4.700000 -0.210938
4.701000 -0.215412
4.702000 -0.227860
4.703000 -0.214269
4.704000 -0.212220
4.705000 -0.209713
4.706000 -0.207145
4.707000 -0.217157
4.708000 -0.215297
4.709000 -0.205623
4.710000 -0.225591
4.711000 -0.223856
4.712000 -0.218599
4.713000 -0.216128
4.714000 -0.217846
4.715000 -0.214845
4.716000 -0.210158
4.717000 -0.206421
4.718000 -0.206792
4.719000 -0.210108
4.720000 -0.213440
4.721000 -0.214322
4.722000 -0.207810
4.723000 -0.204707
4.724000 -0.211089
4.725000 -0.191895
4.726000 -0.196473
4.727000 -0.203845
4.728000 -0.205588
4.729000 -0.201288
4.730000 -0.202542
4.731000 -0.207466
4.732000 -0.213232
4.733000 -0.204617
4.734000 -0.210265
4.735000 -0.199928
4.736000 -0.212551
4.737000 -0.199088
4.738000 -0.203279
4.739000 -0.188761
4.740000 -0.190919
4.741000 -0.198812
4.742000 -0.185268
4.743000 -0.195635
4.744000 -0.196170
4.745000 -0.186468
4.746000 -0.181411
4.747000 -0.182220
4.748000 -0.190285
4.749000 -0.177254
4.750000 -0.183982
4.751000 -0.176474
4.752000 -0.186430
4.753000 -0.189951
4.754000 -0.177870
4.755000 -0.181101
4.756000 -0.180763
4.757000 -0.178922
4.758000 -0.181487
4.759000 -0.173918
4.760000 -0.174736
4.761000 -0.174351
4.762000 -0.166760
4.763000 -0.170005
4.764000 -0.165269
4.765000 -0.168085
4.766000 -0.169189
4.767000 -0.165216
4.768000 -0.168494
4.769000 -0.166987
4.770000 -0.153116
4.771000 -0.144719
4.772000 -0.150197
4.773000 -0.158082
4.774000 -0.152987
4.775000 -0.154840
4.776000 -0.161339
4.777000 -0.158922
4.778000 -0.163621
4.779000 -0.162087
4.780000 -0.159753
4.781000 -0.159739
4.782000 -0.157048
4.783000 -0.157116
4.784000 -0.155167
4.785000 -0.154490
4.786000 -0.149344
4.787000 -0.152949
4.788000 -0.149219
4.789000 -0.151419
4.790000 -0.146281
4.791000 -0.145390
4.792000 -0.139795
4.793000 -0.147036
4.794000 -0.145130
4.795000 -0.138794
4.796000 -0.153083
4.797000 -0.155749
4.798000 -0.142544
4.799000 -0.151903
4.800000 -0.146035
4.801000 -0.137693
4.802000 -0.152594
4.803000 -0.144173
4.804000 -0.142061
4.805000 -0.139201
4.806000 -0.146031
4.807000 -0.148130
4.808000 -0.156247
4.809000 -0.160667
4.810000 -0.163848
4.811000 -0.151683
4.812000 -0.153197
4.813000 -0.161713
4.814000 -0.155554
4.815000 -0.160008
4.816000 -0.168944
4.817000 -0.169993
4.818000 -0.169674
4.819000 -0.186456
4.820000 -0.177883
4.821000 -0.166404
4.822000 -0.173517
4.823000 -0.165519
4.824000 -0.169119
4.825000 -0.181900
4.826000 -0.173744
4.827000 -0.177736
4.828000 -0.182033
4.829000 -0.190589
4.830000 -0.181278
4.831000 -0.188198
4.832000 -0.191976
4.833000 -0.186984
4.834000 -0.191459
4.835000 -0.194578
4.836000 -0.198698
4.837000 -0.206620
4.838000 -0.191344
4.839000 -0.205156
4.840000 -0.202483
4.841000 -0.202426
4.842000 -0.200803
4.843000 -0.209152
4.844000 -0.199114
4.845000 -0.209000
4.846000 -0.206077
4.847000 -0.214734
4.848000 -0.217907
4.849000 -0.212171
4.850000 -0.212352
4.851000 -0.215162
4.852000 -0.224478
4.853000 -0.211204
4.854000 -0.208664
4.855000 -0.223946
4.856000 -0.213636
4.857000 -0.214463
4.858000 -0.216191
4.859000 -0.221188
4.860000 -0.220989
4.861000 -0.228956
4.862000 -0.225589
4.863000 -0.221932
4.864000 -0.210570
4.865000 -0.220619
4.866000 -0.216909
4.867000 -0.214577
4.868000 -0.220754
4.869000 -0.217532
4.870000 -0.221299
4.871000 -0.228419
4.872000 -0.229136
4.873000 -0.230575
4.874000 -0.220725
4.875000 -0.231012
4.876000 -0.225504
4.877000 -0.225335
4.878000 -0.227382
4.879000 -0.225846
4.880000 -0.231364
4.881000 -0.235085
4.882000 -0.227671
4.883000 -0.227410
4.884000 -0.217769
4.885000 -0.224795
4.886000 -0.227842
4.887000 -0.225089
4.888000 -0.229436
4.889000 -0.220804
4.890000 -0.229761
4.891000 -0.223400
4.892000 -0.228937
4.893000 -0.236566
4.894000 -0.234873
4.895000 -0.224663
4.896000 -0.231546
4.897000 -0.236159
4.898000 -0.238404
4.899000 -0.233672
4.900000 -0.234246
4.901000 -0.230314
4.902000 -0.228201
4.903000 -0.239678
4.904000 -0.237210
4.905000 -0.234578
4.906000 -0.236531
4.907000 -0.223691
4.908000 -0.227839
4.909000 -0.220928
4.910000 -0.234646
4.911000 -0.228767
4.912000 -0.228826
4.913000 -0.238075
4.914000 -0.236986
4.915000 -0.225413
4.916000 -0.239225
4.917000 -0.228456
4.918000 -0.228194
4.919000 -0.226398
4.920000 -0.224889
4.921000 -0.223058
4.922000 -0.229924
4.923000 -0.229589
4.924000 -0.233477
4.925000 -0.233239
4.926000 -0.231298
4.927000 -0.220220
4.928000 -0.226329
4.929000 -0.232160
4.930000 -0.231636
4.931000 -0.228587
4.932000 -0.224680
4.933000 -0.226640
4.934000 -0.232484
4.935000 -0.225256
4.936000 -0.230996
4.937000 -0.223324
4.938000 -0.215944
4.939000 -0.225106
4.940000 -0.228383
4.941000 -0.217695
4.942000 -0.213638
4.943000 -0.220824
4.944000 -0.210442
4.945000 -0.215484
4.946000 -0.223921
4.947000 -0.224557
4.948000 -0.218509
4.949000 -0.222054
4.950000 -0.236284
4.951000 -0.216165
4.952000 -0.222936
4.953000 -0.225504
4.954000 -0.227313
4.955000 -0.217098
4.956000 -0.219860
4.957000 -0.223254
4.958000 -0.219260
4.959000 -0.223774
4.960000 -0.230175
4.961000 -0.208363
4.962000 -0.211009
4.963000 -0.211779
4.964000 -0.210401
4.965000 -0.204732
4.966000 -0.207971
4.967000 -0.205715
4.968000 -0.196336
4.969000 -0.213264
4.970000 -0.210706
4.971000 -0.196037
4.972000 -0.210938
4.973000 -0.199555
4.974000 -0.201709
4.975000 -0.201290
4.976000 -0.203824
4.977000 -0.201151
4.978000 -0.200387
4.979000 -0.203068
4.980000 -0.200406
4.981000 -0.191075
4.982000 -0.192685
4.983000 -0.201234
4.984000 -0.179516
4.985000 -0.181302
4.986000 -0.180878
4.987000 -0.184171
4.988000 -0.180789
4.989000 -0.183714
4.990000 -0.190033
4.991000 -0.167937
4.992000 -0.177723
4.993000 -0.170126
4.994000 -0.170550
4.995000 -0.157466
4.996000 -0.154978
4.997000 -0.158032
4.998000 -0.154437
4.999000 -0.156940
5.000000 -0.164503
5.001000 -0.164817
5.002000 -0.171916
5.003000 -0.182445
5.004000 -0.161992
5.005000 -0.161545
5.006000 -0.174043
5.007000 -0.171931
5.008000 -0.173056
5.009000 -0.172848
5.010000 -0.175015
5.011000 -0.165018
5.012000 -0.174547
5.013000 -0.176309
5.014000 -0.160240
5.015000 -0.161790
5.016000 -0.158902
5.017000 -0.165596
5.018000 -0.159525
5.019000 -0.163905
5.020000 -0.168805
5.021000 -0.167175
5.022000 -0.160045
5.023000 -0.162393
5.024000 -0.152979
5.025000 -0.153552
5.026000 -0.159864
5.027000 -0.159110
5.028000 -0.157913
5.029000 -0.162706
5.030000 -0.173273
5.031000 -0.174262
5.032000 -0.162608
5.033000 -0.178849
5.034000 -0.183226
5.035000 -0.184231
5.036000 -0.181164
5.037000 -0.190175
5.038000 -0.200026
5.039000 -0.195741
5.040000 -0.195317
5.041000 -0.198163
5.042000 -0.202286
5.043000 -0.208060
5.044000 -0.215289
5.045000 -0.204853
5.046000 -0.198402
5.047000 -0.206118
5.048000 -0.212074
5.049000 -0.214961
5.050000 -0.219411
5.051000 -0.223565
5.052000 -0.209048
5.053000 -0.213894
5.054000 -0.223694
5.055000 -0.224674
5.056000 -0.218079
5.057000 -0.223763
5.058000 -0.223111
5.059000 -0.217014
5.060000 -0.221507
5.061000 -0.227715
5.062000 -0.216078
5.063000 -0.220797
5.064000 -0.232514
5.065000 -0.219113
5.066000 -0.219406
5.067000 -0.228313
5.068000 -0.226243
5.069000 -0.221176
5.070000 -0.230373
5.071000 -0.240159
5.072000 -0.240071
5.073000 -0.230984
5.074000 -0.231726
5.075000 -0.244139
5.076000 -0.235195
5.077000 -0.225727
5.078000 -0.236410
5.079000 -0.238171
5.080000 -0.234827
5.081000 -0.242835
5.082000 -0.236236
5.083000 -0.225367
5.084000 -0.234773
5.085000 -0.243129
5.086000 -0.237439
5.087000 -0.235668
5.088000 -0.242000
5.089000 -0.240421
5.090000 -0.241857
5.091000 -0.253966
5.092000 -0.243663
5.093000 -0.235621
5.094000 -0.235714
5.095000 -0.242278
5.096000 -0.229891
5.097000 -0.240940
5.098000 -0.242403
5.099000 -0.239586
5.100000 -0.235610
5.101000 -0.242947
5.102000 -0.242766
5.103000 -0.240835
5.104000 -0.227478
5.105000 -0.239179
5.106000 -0.229358
5.107000 -0.231449
5.108000 -0.248349
5.109000 -0.245025
5.110000 -0.242871
5.111000 -0.257396
5.112000 -0.256803
5.113000 -0.251003
5.114000 -0.249203
5.115000 -0.253401
5.116000 -0.239942
5.117000 -0.241135
5.118000 -0.248602
5.119000 -0.239404
5.120000 -0.236965
5.121000 -0.251605
5.122000 -0.248097
5.123000 -0.237791
5.124000 -0.240650
5.125000 -0.243725
5.126000 -0.236083
5.127000 -0.239168
5.128000 -0.241951
5.129000 -0.246377
5.130000 -0.239782
5.131000 -0.252453
5.132000 -0.242497
5.133000 -0.243941
5.134000 -0.250530
5.135000 -0.252153
5.136000 -0.245153
5.137000 -0.240367
5.138000 -0.248081
5.139000 -0.248252
5.140000 -0.238613
5.141000 -0.249217
5.142000 -0.251417
5.143000 -0.254962
5.144000 -0.245263
5.145000 -0.251955
5.146000 -0.244974
5.147000 -0.253559
5.148000 -0.262997
5.149000 -0.277985
5.150000 -0.284454
5.151000 -0.298868
5.152000 -0.301664
5.153000 -0.306325
5.154000 -0.321060
5.155000 -0.307559
5.156000 -0.299253
5.157000 -0.311243
5.158000 -0.299182
5.159000 -0.293230
5.160000 -0.277841
5.161000 -0.259573
5.162000 -0.246690
5.163000 -0.243881
5.164000 -0.226936
5.165000 -0.204082
5.166000 -0.192120
5.167000 -0.185678
5.168000 -0.170246
5.169000 -0.157364
5.170000 -0.114657
5.171000 -0.094520
5.172000 -0.064289
5.173000 -0.023856
5.174000 0.001127
5.175000 0.056012
5.176000 0.097247
5.177000 0.136925
5.178000 0.187026
5.179000 0.225033
5.180000 0.268299
5.181000 0.289326
5.182000 0.339020
5.183000 0.385805
5.184000 0.394231
5.185000 0.387024
5.186000 0.375082
5.187000 0.344195
5.188000 0.308657
5.189000 0.258832
5.190000 0.215477
5.191000 0.183599
5.192000 0.137525
5.193000 0.088756
5.194000 0.029424
5.195000 -0.019790
5.196000 -0.048657
5.197000 -0.092225
5.198000 -0.124753
5.199000 -0.173493
5.200000 -0.186803
5.201000 -0.206836
5.202000 -0.227275
5.203000 -0.239312
5.204000 -0.261622
5.205000 -0.259743
5.206000 -0.267205
5.207000 -0.272570
5.208000 -0.259529
5.209000 -0.273612
5.210000 -0.269095
5.211000 -0.265823
5.212000 -0.266188
5.213000 -0.260500
5.214000 -0.253118
5.215000 -0.247192
5.216000 -0.240801
5.217000 -0.242763
5.218000 -0.237258
5.219000 -0.227900
5.220000 -0.218553
5.221000 -0.221921
5.222000 -0.223997
5.223000 -0.227600
5.224000 -0.222750
5.225000 -0.221922
5.226000 -0.220200
5.227000 -0.226139
5.228000 -0.217837
5.229000 -0.221705
5.230000 -0.227247
5.231000 -0.225871
5.232000 -0.232095
5.233000 -0.239573
5.234000 -0.230109
5.235000 -0.234974
5.236000 -0.225082
5.237000 -0.234238
5.238000 -0.235109
5.239000 -0.233211
5.240000 -0.241699
5.241000 -0.230419
5.242000 -0.231116
5.243000 -0.234804
5.244000 -0.234208
5.245000 -0.231822
5.246000 -0.228426
5.247000 -0.234464
5.248000 -0.238282
5.249000 -0.230650
5.250000 -0.238986
5.251000 -0.230120
5.252000 -0.239084
5.253000 -0.229335
5.254000 -0.241659
5.255000 -0.244909
5.256000 -0.223617
5.257000 -0.233604
5.258000 -0.232446
5.259000 -0.224177
5.260000 -0.236559
5.261000 -0.223986
5.262000 -0.231058
5.263000 -0.229407
5.264000 -0.232233
5.265000 -0.227025
5.266000 -0.224332
5.267000 -0.228809
5.268000 -0.228404
5.269000 -0.223560
5.270000 -0.229917
5.271000 -0.216947
5.272000 -0.226123
5.273000 -0.237542
5.274000 -0.234114
5.275000 -0.238756
5.276000 -0.230683
5.277000 -0.239965
5.278000 -0.230417
5.279000 -0.225139
5.280000 -0.230142
5.281000 -0.228641
5.282000 -0.233008
5.283000 -0.221089
5.284000 -0.228484
5.285000 -0.228069
5.286000 -0.222493
5.287000 -0.223755
5.288000 -0.221470
5.289000 -0.221652
5.290000 -0.218978
5.291000 -0.213409
5.292000 -0.219399
5.293000 -0.220527
5.294000 -0.228486
5.295000 -0.229957
5.296000 -0.221387
5.297000 -0.209755
5.298000 -0.223441
5.299000 -0.227380
5.300000 -0.223973
5.301000 -0.237526
5.302000 -0.223900
5.303000 -0.220484
5.304000 -0.222648
5.305000 -0.216245
5.306000 -0.217803
5.307000 -0.222230
5.308000 -0.225258
5.309000 -0.217511
5.310000 -0.222702
5.311000 -0.217737
5.312000 -0.220036
5.313000 -0.226979
5.314000 -0.223078
5.315000 -0.233353
5.316000 -0.223593
5.317000 -0.227986
5.318000 -0.227446
5.319000 -0.233604
5.320000 -0.222447
5.321000 -0.217263
5.322000 -0.222536
5.323000 -0.212501
5.324000 -0.216548
5.325000 -0.218160
5.326000 -0.220046
5.327000 -0.212095
5.328000 -0.208886
5.329000 -0.217868
5.330000 -0.215975
5.331000 -0.201888
5.332000 -0.214051
5.333000 -0.220297
5.334000 -0.210787
5.335000 -0.207180
5.336000 -0.216445
5.337000 -0.212186
5.338000 -0.214991
5.339000 -0.211967
5.340000 -0.207260
5.341000 -0.202910
5.342000 -0.199296
5.343000 -0.206848
5.344000 -0.202653
5.345000 -0.191887
5.346000 -0.196006
5.347000 -0.198999
5.348000 -0.201545
5.349000 -0.204178
5.350000 -0.195761
5.351000 -0.200502
5.352000 -0.199324
5.353000 -0.217315
5.354000 -0.211164
5.355000 -0.200955
5.356000 -0.194072
5.357000 -0.200552
5.358000 -0.203645
5.359000 -0.202536
5.360000 -0.192182
5.361000 -0.187613
5.362000 -0.188952
5.363000 -0.186474
5.364000 -0.185965
5.365000 -0.184997
5.366000 -0.179006
5.367000 -0.186812
5.368000 -0.183285
5.369000 -0.184340
5.370000 -0.184311
5.371000 -0.184739
5.372000 -0.186132
5.373000 -0.193653
5.374000 -0.194475
5.375000 -0.189296
5.376000 -0.194036
5.377000 -0.189116
5.378000 -0.189431
5.379000 -0.188815
5.380000 -0.174479
5.381000 -0.172611
5.382000 -0.176373
5.383000 -0.169552
5.384000 -0.178958
5.385000 -0.160889
5.386000 -0.157946
5.387000 -0.153740
5.388000 -0.149760
5.389000 -0.162332
5.390000 -0.159102
5.391000 -0.151026
5.392000 -0.163388
5.393000 -0.156608
5.394000 -0.166291
5.395000 -0.163585
5.396000 -0.157536
5.397000 -0.167786
5.398000 -0.153708
5.399000 -0.156582
5.400000 -0.153874
5.401000 -0.145872
5.402000 -0.152443
5.403000 -0.151260
5.404000 -0.156513
5.405000 -0.152545
5.406000 -0.148459
5.407000 -0.146950
5.408000 -0.143242
5.409000 -0.143145
5.410000 -0.140753
5.411000 -0.145360
5.412000 -0.149961
5.413000 -0.151047
5.414000 -0.151052
5.415000 -0.162139
5.416000 -0.149478
5.417000 -0.147925
5.418000 -0.146440
5.419000 -0.148316
5.420000 -0.153718
5.421000 -0.141443
5.422000 -0.151422
5.423000 -0.139347
5.424000 -0.139497
5.425000 -0.150479
5.426000 -0.152027
5.427000 -0.146340
5.428000 -0.150347
5.429000 -0.149893
5.430000 -0.164465
5.431000 -0.153706
5.432000 -0.167353
5.433000 -0.162187
5.434000 -0.157050
5.435000 -0.169815
5.436000 -0.173985
5.437000 -0.179211
5.438000 -0.179329
5.439000 -0.179757
5.440000 -0.185305
5.441000 -0.170908
5.442000 -0.185920
5.443000 -0.183348
5.444000 -0.179286
5.445000 -0.190255
5.446000 -0.201275
5.447000 -0.190802
5.448000 -0.202868
5.449000 -0.203162
5.450000 -0.201616
5.451000 -0.201972
5.452000 -0.205887
5.453000 -0.197424
5.454000 -0.202756
5.455000 -0.214459
5.456000 -0.211339
5.457000 -0.212675
5.458000 -0.222201
5.459000 -0.209859
5.460000 -0.220063
5.461000 -0.217697
5.462000 -0.222034
5.463000 -0.211695
5.464000 -0.219090
5.465000 -0.218923
5.466000 -0.230230
5.467000 -0.223693
5.468000 -0.231760
5.469000 -0.225852
5.470000 -0.228794
5.471000 -0.234120
5.472000 -0.231393
5.473000 -0.234519
5.474000 -0.228771
5.475000 -0.230683
5.476000 -0.243931
5.477000 -0.243273
5.478000 -0.236352
5.479000 -0.234625
5.480000 -0.232569
5.481000 -0.238664
5.482000 -0.227331
5.483000 -0.244563
5.484000 -0.221702
5.485000 -0.220621
5.486000 -0.234275
5.487000 -0.232693
5.488000 -0.231991
5.489000 -0.232443
5.490000 -0.235723
5.491000 -0.247071
5.492000 -0.248175
5.493000 -0.247151
5.494000 -0.247914
5.495000 -0.244315
5.496000 -0.242105
5.497000 -0.251111
5.498000 -0.246446
5.499000 -0.241715
5.500000 -0.234592
5.501000 -0.249527
5.502000 -0.248159
5.503000 -0.240917
5.504000 -0.241470
5.505000 -0.239828
5.506000 -0.249519
5.507000 -0.232114
5.508000 -0.233968
5.509000 -0.243414
5.510000 -0.231437
5.511000 -0.248415
5.512000 -0.239547
5.513000 -0.238519
5.514000 -0.250324
5.515000 -0.251251
5.516000 -0.247331
5.517000 -0.240950
5.518000 -0.243114
5.519000 -0.244848
5.520000 -0.236624
5.521000 -0.240999
5.522000 -0.239244
5.523000 -0.243727
5.524000 -0.242539
5.525000 -0.243398
5.526000 -0.231448
5.527000 -0.227058
5.528000 -0.236174
5.529000 -0.244997
5.530000 -0.238060
5.531000 -0.249080
5.532000 -0.243028
5.533000 -0.240557
5.534000 -0.247657
5.535000 -0.247251
5.536000 -0.243647
5.537000 -0.240232
5.538000 -0.240956
5.539000 -0.236942
5.540000 -0.235952
5.541000 -0.244548
5.542000 -0.236292
5.543000 -0.241256
5.544000 -0.246639
5.545000 -0.235209
5.546000 -0.233261
5.547000 -0.226304
5.548000 -0.232423
5.549000 -0.240558
5.550000 -0.236400
5.551000 -0.249287
5.552000 -0.240473
5.553000 -0.241841
5.554000 -0.245758
5.555000 -0.257186
5.556000 -0.240725
5.557000 -0.240366
5.558000 -0.242108
5.559000 -0.243458
5.560000 -0.235622
5.561000 -0.243611
5.562000 -0.233524
5.563000 -0.230993
5.564000 -0.234062
5.565000 -0.245657
5.566000 -0.235232
5.567000 -0.221968
5.568000 -0.233149
5.569000 -0.237031
5.570000 -0.240996
5.571000 -0.229406
5.572000 -0.236378
5.573000 -0.236842
5.574000 -0.235459
5.575000 -0.247433
5.576000 -0.236586
5.577000 -0.239133
5.578000 -0.234904
5.579000 -0.230247
5.580000 -0.239949
5.581000 -0.233867
5.582000 -0.226863
5.583000 -0.233025
5.584000 -0.225024
5.585000 -0.229583
5.586000 -0.229180
5.587000 -0.232309
5.588000 -0.227675
5.589000 -0.244753
5.590000 -0.242670
5.591000 -0.235809
5.592000 -0.231465
5.593000 -0.240038
5.594000 -0.228965
5.595000 -0.231402
5.596000 -0.234287
5.597000 -0.227804
5.598000 -0.237067
5.599000 -0.226772
5.600000 -0.234410
5.601000 -0.222757
5.602000 -0.226477
5.603000 -0.225943
5.604000 -0.217401
5.605000 -0.214388
5.606000 -0.213715
5.607000 -0.216986
5.608000 -0.217475
5.609000 -0.208855
5.610000 -0.215058
5.611000 -0.206452
5.612000 -0.205619
5.613000 -0.209054
5.614000 -0.215880
5.615000 -0.205359
5.616000 -0.207492
5.617000 -0.200315
5.618000 -0.208174
5.619000 -0.197812
5.620000 -0.203491
5.621000 -0.197784
5.622000 -0.197991
5.623000 -0.204185
5.624000 -0.199744
5.625000 -0.188257
5.626000 -0.191018
5.627000 -0.188469
5.628000 -0.190664
5.629000 -0.180480
5.630000 -0.184052
5.631000 -0.174164
5.632000 -0.174907
5.633000 -0.184253
5.634000 -0.191797
5.635000 -0.182590
5.636000 -0.184200
5.637000 -0.179497
5.638000 -0.194880
5.639000 -0.190154
5.640000 -0.186024
5.641000 -0.188246
5.642000 -0.186407
5.643000 -0.191298
5.644000 -0.187506
5.645000 -0.184377
5.646000 -0.180049
5.647000 -0.176122
5.648000 -0.187925
5.649000 -0.180227
5.650000 -0.180086
5.651000 -0.187311
5.652000 -0.176211
5.653000 -0.182798
5.654000 -0.183024
5.655000 -0.181405
5.656000 -0.187860
5.657000 -0.176495
5.658000 -0.179820
5.659000 -0.176227
5.660000 -0.172819
5.661000 -0.179360
5.662000 -0.180968
5.663000 -0.186673
5.664000 -0.192233
5.665000 -0.191260
5.666000 -0.185293
5.667000 -0.185490
5.668000 -0.181138
5.669000 -0.184110
5.670000 -0.183888
5.671000 -0.195923
5.672000 -0.181959
5.673000 -0.202763
5.674000 -0.209471
5.675000 -0.205306
5.676000 -0.211340
5.677000 -0.217673
5.678000 -0.218653
5.679000 -0.218497
5.680000 -0.222271
5.681000 -0.223592
5.682000 -0.219682
5.683000 -0.229073
5.684000 -0.224834
5.685000 -0.230775
5.686000 -0.236777
5.687000 -0.224221
5.688000 -0.234770
5.689000 -0.235187
5.690000 -0.230314
5.691000 -0.235472
5.692000 -0.221070
5.693000 -0.232933
5.694000 -0.238235
5.695000 -0.231835
5.696000 -0.233245
5.697000 -0.233373
5.698000 -0.238842
5.699000 -0.234555
5.700000 -0.246732
5.701000 -0.251553
5.702000 -0.247771
5.703000 -0.241647
5.704000 -0.232068
5.705000 -0.245864
5.706000 -0.261313
5.707000 -0.245058
5.708000 -0.241534
5.709000 -0.254299
5.710000 -0.252697
5.711000 -0.257827
5.712000 -0.251903
5.713000 -0.244397
5.714000 -0.244098
5.715000 -0.256734
5.716000 -0.255432
5.717000 -0.248176
5.718000 -0.253164
5.719000 -0.255492
5.720000 -0.268570
5.721000 -0.250984
5.722000 -0.250977
5.723000 -0.245756
5.724000 -0.241157
5.725000 -0.247065
5.726000 -0.259606
5.727000 -0.251494
5.728000 -0.245603
5.729000 -0.253840
5.730000 -0.254224
5.731000 -0.242177
5.732000 -0.239932
5.733000 -0.250166
5.734000 -0.239533
5.735000 -0.254665
5.736000 -0.268698
5.737000 -0.280778
5.738000 -0.265991
5.739000 -0.247847
5.740000 -0.264236
5.741000 -0.250412
5.742000 -0.264480
5.743000 -0.254792
5.744000 -0.247354
5.745000 -0.256927
5.746000 -0.261807
5.747000 -0.258049
5.748000 -0.253601
5.749000 -0.262381
5.750000 -0.259298
5.751000 -0.255104
5.752000 -0.255407
5.753000 -0.253961
5.754000 -0.259450
5.755000 -0.261498
5.756000 -0.266809
5.757000 -0.255511
5.758000 -0.264803
5.759000 -0.266659
5.760000 -0.264737
5.761000 -0.254832
5.762000 -0.255956
5.763000 -0.255674
5.764000 -0.257773
5.765000 -0.246528
5.766000 -0.264149
5.767000 -0.249200
5.768000 -0.255168
5.769000 -0.248504
5.770000 -0.255705
5.771000 -0.259418
5.772000 -0.253985
5.773000 -0.253466
5.774000 -0.265592
5.775000 -0.258307
5.776000 -0.261044
5.777000 -0.262354
5.778000 -0.273325
5.779000 -0.267805
5.780000 -0.271146
5.781000 -0.272021
5.782000 -0.285784
5.783000 -0.291183
5.784000 -0.291188
5.785000 -0.301844
5.786000 -0.305741
5.787000 -0.307785
5.788000 -0.326150
5.789000 -0.323932
5.790000 -0.333398
5.791000 -0.335871
5.792000 -0.334732
5.793000 -0.314311
5.794000 -0.308249
5.795000 -0.311114
5.796000 -0.283912
5.797000 -0.264042
5.798000 -0.269452
5.799000 -0.248926
5.800000 -0.218607
5.801000 -0.209897
5.802000 -0.191503
5.803000 -0.163883
5.804000 -0.154231
5.805000 -0.129366
5.806000 -0.090714
5.807000 -0.056515
5.808000 -0.034210
5.809000 -0.001197
5.810000 0.037598
5.811000 0.078967
5.812000 0.118080
5.813000 0.171652
5.814000 0.204297
5.815000 0.258239
5.816000 0.291856
5.817000 0.327917
5.818000 0.369573
5.819000 0.386423
5.820000 0.387855
5.821000 0.364931
5.822000 0.347191
5.823000 0.330449
5.824000 0.298689
5.825000 0.252203
5.826000 0.217963
5.827000 0.167426
5.828000 0.127745
5.829000 0.067228
5.830000 0.013219
5.831000 -0.030156
5.832000 -0.078701
5.833000 -0.110422
5.834000 -0.166249
5.835000 -0.200550
5.836000 -0.220383
5.837000 -0.226212
5.838000 -0.249255
5.839000 -0.267020
5.840000 -0.278662
5.841000 -0.279558
5.842000 -0.283356
5.843000 -0.271552
5.844000 -0.270161
5.845000 -0.276127
5.846000 -0.276024
5.847000 -0.262311
5.848000 -0.256246
5.849000 -0.252324
5.850000 -0.244991
5.851000 -0.239353
5.852000 -0.248808
5.853000 -0.245592
5.854000 -0.241624
5.855000 -0.244936
5.856000 -0.248858
5.857000 -0.243179
5.858000 -0.241220
5.859000 -0.245782
5.860000 -0.239939
5.861000 -0.237594
5.862000 -0.241916
5.863000 -0.246848
5.864000 -0.246682
5.865000 -0.244115
5.866000 -0.238288
5.867000 -0.237615
5.868000 -0.229124
5.869000 -0.234650
5.870000 -0.245012
5.871000 -0.241728
5.872000 -0.249495
5.873000 -0.250993
5.874000 -0.249563
5.875000 -0.254339
5.876000 -0.286085
5.877000 -0.267292
5.878000 -0.246359
5.879000 -0.238239
5.880000 -0.242729
5.881000 -0.230779
5.882000 -0.244685
5.883000 -0.244056
5.884000 -0.237881
5.885000 -0.235601
5.886000 -0.249673
5.887000 -0.241678
5.888000 -0.237783
5.889000 -0.236773
5.890000 -0.249139
5.891000 -0.241773
5.892000 -0.240330
5.893000 -0.249824
5.894000 -0.245339
5.895000 -0.244652
5.896000 -0.257149
5.897000 -0.244666
5.898000 -0.241546
5.899000 -0.246394
5.900000 -0.249287
5.901000 -0.237234
5.902000 -0.243897
5.903000 -0.245554
5.904000 -0.241067
5.905000 -0.235488
5.906000 -0.236779
5.907000 -0.243317
5.908000 -0.238304
5.909000 -0.231151
5.910000 -0.241280
5.911000 -0.229230
5.912000 -0.235072
5.913000 -0.243444
5.914000 -0.237758
5.915000 -0.231613
5.916000 -0.243670
5.917000 -0.234912
5.918000 -0.234915
5.919000 -0.241796
5.920000 -0.232708
5.921000 -0.253407
5.922000 -0.242670
5.923000 -0.252004
5.924000 -0.242424
5.925000 -0.242331
5.926000 -0.234222
5.927000 -0.247551
5.928000 -0.228899
5.929000 -0.237471
5.930000 -0.239600
5.931000 -0.240960
5.932000 -0.224364
5.933000 -0.246771
5.934000 -0.242657
5.935000 -0.235389
5.936000 -0.242247
5.937000 -0.246899
5.938000 -0.241467
5.939000 -0.242714
5.940000 -0.237471
5.941000 -0.245077
5.942000 -0.227918
5.943000 -0.238840
5.944000 -0.237466
5.945000 -0.234805
5.946000 -0.232973
5.947000 -0.233878
5.948000 -0.225813
5.949000 -0.231312
5.950000 -0.230950
5.951000 -0.237629
5.952000 -0.231458
5.953000 -0.238476
5.954000 -0.236092
5.955000 -0.237895
5.956000 -0.233006
5.957000 -0.239733
5.958000 -0.240196
5.959000 -0.237671
5.960000 -0.234455
5.961000 -0.236939
5.962000 -0.230197
5.963000 -0.234706
5.964000 -0.235600
5.965000 -0.230669
5.966000 -0.224178
5.967000 -0.231436
5.968000 -0.221892
5.969000 -0.223953
5.970000 -0.226635
5.971000 -0.233347
5.972000 -0.221813
5.973000 -0.232121
5.974000 -0.228328
5.975000 -0.232507
5.976000 -0.218241
5.977000 -0.236459
5.978000 -0.229985
5.979000 -0.225681
5.980000 -0.221905
5.981000 -0.217612
5.982000 -0.228448
5.983000 -0.231724
5.984000 -0.221227
5.985000 -0.218587
5.986000 -0.212127
5.987000 -0.219991
5.988000 -0.214286
5.989000 -0.219676
5.990000 -0.210191
5.991000 -0.213353
5.992000 -0.208911
5.993000 -0.217191
5.994000 -0.214363
5.995000 -0.216085
5.996000 -0.204723
5.997000 -0.211724
5.998000 -0.211298
5.999000 -0.211027
6.000000 -0.201593
6.001000 -0.196845
6.002000 -0.208538
6.003000 -0.205029
6.004000 -0.197951
6.005000 -0.201292
6.006000 -0.200081
6.007000 -0.193713
6.008000 -0.187507
6.009000 -0.188566
6.010000 -0.187373
6.011000 -0.180953
6.012000 -0.188966
6.013000 -0.188649
6.014000 -0.181987
6.015000 -0.190464
6.016000 -0.195344
6.017000 -0.191013
6.018000 -0.189149
6.019000 -0.183058
6.020000 -0.186080
6.021000 -0.169632
6.022000 -0.174944
6.023000 -0.176426
6.024000 -0.165110
6.025000 -0.164449
6.026000 -0.173540
6.027000 -0.176859
6.028000 -0.164434
6.029000 -0.157189
6.030000 -0.165109
6.031000 -0.158442
6.032000 -0.157692
6.033000 -0.163850
6.034000 -0.162111
6.035000 -0.158991
6.036000 -0.159581
6.037000 -0.157215
6.038000 -0.158101
6.039000 -0.151026
6.040000 -0.153870
6.041000 -0.152988
6.042000 -0.160336
6.043000 -0.161023
6.044000 -0.144332
6.045000 -0.148871
6.046000 -0.144958
6.047000 -0.149832
6.048000 -0.149567
6.049000 -0.142812
6.050000 -0.143562
6.051000 -0.139176
6.052000 -0.153899
6.053000 -0.152005
6.054000 -0.142081
6.055000 -0.141383
6.056000 -0.148655
6.057000 -0.149535
6.058000 -0.157419
6.059000 -0.146494
6.060000 -0.150099
6.061000 -0.151322
6.062000 -0.157901
6.063000 -0.158044
6.064000 -0.154416
6.065000 -0.150642
6.066000 -0.157797
6.067000 -0.157571
6.068000 -0.166682
6.069000 -0.162090
6.070000 -0.165725
6.071000 -0.178414
6.072000 -0.171779
6.073000 -0.180191
6.074000 -0.178081
6.075000 -0.182899
6.076000 -0.181084
6.077000 -0.188128
6.078000 -0.201062
6.079000 -0.187580
6.080000 -0.197561
6.081000 -0.193810
6.082000 -0.193847
6.083000 -0.199931
6.084000 -0.186899
6.085000 -0.194703
6.086000 -0.193193
6.087000 -0.194288
6.088000 -0.205387
6.089000 -0.204763
6.090000 -0.197120
6.091000 -0.213098
6.092000 -0.201653
6.093000 -0.215934
6.094000 -0.214613
6.095000 -0.217583
6.096000 -0.214573
6.097000 -0.224264
6.098000 -0.231507
6.099000 -0.218576
6.100000 -0.224780
6.101000 -0.230050
6.102000 -0.220057
6.103000 -0.235577
6.104000 -0.220505
6.105000 -0.223999
6.106000 -0.218714
6.107000 -0.219616
6.108000 -0.224931
6.109000 -0.220859
6.110000 -0.220144
6.111000 -0.231767
6.112000 -0.231086
6.113000 -0.235591
6.114000 -0.235700
6.115000 -0.248326
6.116000 -0.236004
6.117000 -0.238278
6.118000 -0.244759
6.119000 -0.236225
6.120000 -0.231560
6.121000 -0.246214
6.122000 -0.235789
6.123000 -0.241925
6.124000 -0.249049
6.125000 -0.233608
6.126000 -0.238987
6.127000 -0.229175
6.128000 -0.244138
6.129000 -0.243447
6.130000 -0.237057
6.131000 -0.245261
6.132000 -0.246131
6.133000 -0.247902
6.134000 -0.237170
6.135000 -0.243531
6.136000 -0.245571
6.137000 -0.250519
6.138000 -0.253218
6.139000 -0.249160
6.140000 -0.242678
6.141000 -0.243491
6.142000 -0.233265
6.143000 -0.248460
6.144000 -0.247746
6.145000 -0.244686
6.146000 -0.238002
6.147000 -0.231245
6.148000 -0.239946
6.149000 -0.243619
6.150000 -0.240102
6.151000 -0.237711
6.152000 -0.249283
6.153000 -0.236719
6.154000 -0.246307
6.155000 -0.244198
6.156000 -0.242508
6.157000 -0.247082
6.158000 -0.249696
6.159000 -0.249791
6.160000 -0.238815
6.161000 -0.235352
6.162000 -0.241444
6.163000 -0.248477
6.164000 -0.245636
6.165000 -0.233625
6.166000 -0.241822
6.167000 -0.248145
6.168000 -0.239033
6.169000 -0.238929
6.170000 -0.234737
6.171000 -0.229398
6.172000 -0.242259
6.173000 -0.239032
6.174000 -0.243565
6.175000 -0.231148
6.176000 -0.243122
6.177000 -0.247925
6.178000 -0.251466
6.179000 -0.244804
6.180000 -0.242182
6.181000 -0.240412
6.182000 -0.250605
6.183000 -0.242775
6.184000 -0.242629
6.185000 -0.232493
6.186000 -0.240001
6.187000 -0.243593
6.188000 -0.233432
6.189000 -0.227080
6.190000 -0.232418
6.191000 -0.234343
6.192000 -0.238680
6.193000 -0.240212
6.194000 -0.238619
6.195000 -0.233030
6.196000 -0.243603
6.197000 -0.250019
6.198000 -0.242849
6.199000 -0.229362
6.200000 -0.240026
6.201000 -0.241054
6.202000 -0.242025
6.203000 -0.240795
6.204000 -0.242326
6.205000 -0.229490
6.206000 -0.235794
6.207000 -0.244539
6.208000 -0.245305
6.209000 -0.229535
6.210000 -0.228045
6.211000 -0.229363
6.212000 -0.234143
6.213000 -0.241292
6.214000 -0.232519
6.215000 -0.238715
6.216000 -0.234279
6.217000 -0.242450
6.218000 -0.239479
6.219000 -0.225615
6.220000 -0.236031
6.221000 -0.234998
6.222000 -0.231116
6.223000 -0.223075
6.224000 -0.228897
6.225000 -0.222273
6.226000 -0.228144
6.227000 -0.230543
6.228000 -0.230072
6.229000 -0.230059
6.230000 -0.228650
6.231000 -0.239943
6.232000 -0.233634
6.233000 -0.233804
6.234000 -0.229442
6.235000 -0.242232
6.236000 -0.236723
6.237000 -0.232555
6.238000 -0.232782
6.239000 -0.228752
6.240000 -0.233228
6.241000 -0.241443
6.242000 -0.228967
6.243000 -0.237174
6.244000 -0.224981
6.245000 -0.224450
6.246000 -0.231704
6.247000 -0.229060
6.248000 -0.234396
6.249000 -0.220924
6.250000 -0.228234
6.251000 -0.230103
6.252000 -0.229420
6.253000 -0.225038
6.254000 -0.225696
6.255000 -0.239676
6.256000 -0.234666
6.257000 -0.232910
6.258000 -0.237076
6.259000 -0.228402
6.260000 -0.225898
6.261000 -0.226439
6.262000 -0.215691
6.263000 -0.211330
6.264000 -0.215885
6.265000 -0.223268
6.266000 -0.225515
6.267000 -0.207398
6.268000 -0.211165
6.269000 -0.206373
6.270000 -0.208892
6.271000 -0.209969
6.272000 -0.200833
6.273000 -0.199350
6.274000 -0.193983
6.275000 -0.207861
6.276000 -0.205458
6.277000 -0.203191
6.278000 -0.202472
6.279000 -0.194966
6.280000 -0.195823
6.281000 -0.194387
6.282000 -0.187533
6.283000 -0.190281
6.284000 -0.191553
6.285000 -0.194254
6.286000 -0.194101
6.287000 -0.186077
6.288000 -0.181122
6.289000 -0.176841
6.290000 -0.181029
6.291000 -0.182332
6.292000 -0.177440
6.293000 -0.170996
6.294000 -0.165104
6.295000 -0.164387
6.296000 -0.175516
6.297000 -0.178065
6.298000 -0.170786
6.299000 -0.173119
6.300000 -0.174745
6.301000 -0.178939
6.302000 -0.169507
6.303000 -0.177722
6.304000 -0.171107
6.305000 -0.181094
6.306000 -0.184790
6.307000 -0.180245
6.308000 -0.177815
6.309000 -0.174499
6.310000 -0.175789
6.311000 -0.180098
6.312000 -0.184765
6.313000 -0.175201
6.314000 -0.174259
6.315000 -0.177397
6.316000 -0.176163
6.317000 -0.179849
6.318000 -0.170405
6.319000 -0.181864
6.320000 -0.181596
6.321000 -0.179381
6.322000 -0.177528
6.323000 -0.175200
6.324000 -0.173078
