0.000000 -0.222002
0.001000 -0.244347
0.002000 -0.194261
0.003000 -0.238622
0.004000 -0.239653
0.005000 -0.231834
0.006000 -0.223184
0.007000 -0.241768
0.008000 -0.257777
0.009000 -0.252880
0.010000 -0.283048
0.011000 -0.279627
0.012000 -0.262198
0.013000 -0.268660
0.014000 -0.255780
0.015000 -0.263520
0.016000 -0.232173
0.017000 -0.239100
0.018000 -0.239618
0.019000 -0.252171
0.020000 -0.261924
0.021000 -0.239038
0.022000 -0.254599
0.023000 -0.239858
0.024000 -0.256707
0.025000 -0.243840
0.026000 -0.241597
0.027000 -0.245866
0.028000 -0.247635
0.029000 -0.239063
0.030000 -0.266469
0.031000 -0.248959
0.032000 -0.249511
0.033000 -0.283244
0.034000 -0.268624
0.035000 -0.278497
0.036000 -0.287673
0.037000 -0.248776
0.038000 -0.249161
0.039000 -0.240699
0.040000 -0.250011
0.041000 -0.245502
0.042000 -0.240609
0.043000 -0.265124
0.044000 -0.249209
0.045000 -0.276796
0.046000 -0.235802
0.047000 -0.247579
0.048000 -0.265275
0.049000 -0.257574
0.050000 -0.242365
0.051000 -0.236564
0.052000 -0.249514
0.053000 -0.233205
0.054000 -0.250614
0.055000 -0.250578
0.056000 -0.262280
0.057000 -0.252440
0.058000 -0.269269
0.059000 -0.288802
0.060000 -0.267233
0.061000 -0.291159
0.062000 -0.256846
0.063000 -0.253242
0.064000 -0.289694
0.065000 -0.255572
0.066000 -0.288058
0.067000 -0.284841
0.068000 -0.267963
0.069000 -0.250214
0.070000 -0.257934
0.071000 -0.261397
0.072000 -0.254133
0.073000 -0.265534
0.074000 -0.284727
0.075000 -0.289207
0.076000 -0.279646
0.077000 -0.258002
0.078000 -0.223778
0.079000 -0.267599
0.080000 -0.232653
0.081000 -0.241602
0.082000 -0.238129
0.083000 -0.229271
0.084000 -0.255601
0.085000 -0.285253
0.086000 -0.275464
0.087000 -0.261596
0.088000 -0.251209
0.089000 -0.263600
0.090000 -0.263146
0.091000 -0.279298
0.092000 -0.263769
0.093000 -0.283826
0.094000 -0.297922
0.095000 -0.275208
0.096000 -0.255703
0.097000 -0.250217
0.098000 -0.265258
0.099000 -0.262932
0.100000 -0.261773
0.101000 -0.260276
0.102000 -0.283073
0.103000 -0.264491
0.104000 -0.266070
0.105000 -0.261144
0.106000 -0.270651
0.107000 -0.259485
0.108000 -0.275675
0.109000 -0.276837
0.110000 -0.256300
0.111000 -0.262855
0.112000 -0.255109
0.113000 -0.292444
0.114000 -0.270532
0.115000 -0.264380
0.116000 -0.274831
0.117000 -0.263836
0.118000 -0.266326
0.119000 -0.269420
0.120000 -0.283987
0.121000 -0.260349
0.122000 -0.273430
0.123000 -0.268252
0.124000 -0.259826
0.125000 -0.268553
0.126000 -0.263046
0.127000 -0.251514
0.128000 -0.272654
0.129000 -0.272891
0.130000 -0.262774
0.131000 -0.288682
0.132000 -0.276472
0.133000 -0.282756
0.134000 -0.282068
0.135000 -0.273079
0.136000 -0.267000
0.137000 -0.272733
0.138000 -0.262327
0.139000 -0.240076
0.140000 -0.235487
0.141000 -0.236348
0.142000 -0.261518
0.143000 -0.237314
0.144000 -0.247932
0.145000 -0.253751
0.146000 -0.273734
0.147000 -0.252736
0.148000 -0.300904
0.149000 -0.288946
0.150000 -0.265359
0.151000 -0.262366
0.152000 -0.291482
0.153000 -0.297058
0.154000 -0.291728
0.155000 -0.266270
0.156000 -0.266237
0.157000 -0.254724
0.158000 -0.243092
0.159000 -0.236540
0.160000 -0.227723
0.161000 -0.242222
0.162000 -0.237877
0.163000 -0.213942
0.164000 -0.244621
0.165000 -0.281582
0.166000 -0.270862
0.167000 -0.274780
0.168000 -0.300785
0.169000 -0.241859
0.170000 -0.265817
0.171000 -0.263381
0.172000 -0.250441
0.173000 -0.266978
0.174000 -0.262205
0.175000 -0.247904
0.176000 -0.248034
0.177000 -0.254851
0.178000 -0.270632
0.179000 -0.276049
0.180000 -0.239202
0.181000 -0.241986
0.182000 -0.259457
0.183000 -0.256868
0.184000 -0.241624
0.185000 -0.273801
0.186000 -0.257078
0.187000 -0.265017
0.188000 -0.259873
0.189000 -0.232003
0.190000 -0.262476
0.191000 -0.278099
0.192000 -0.296575
0.193000 -0.261951
0.194000 -0.277228
0.195000 -0.273996
0.196000 -0.286987
0.197000 -0.258483
0.198000 -0.277232
0.199000 -0.256877
0.200000 -0.270695
0.201000 -0.271948
0.202000 -0.266790
0.203000 -0.267412
0.204000 -0.266503
0.205000 -0.246292
0.206000 -0.238349
0.207000 -0.282049
0.208000 -0.248732
0.209000 -0.278181
0.210000 -0.268337
0.211000 -0.283083
0.212000 -0.300866
0.213000 -0.301071
0.214000 -0.292029
0.215000 -0.275613
0.216000 -0.274969
0.217000 -0.253670
0.218000 -0.300348
0.219000 -0.314273
0.220000 -0.283675
0.221000 -0.303077
0.222000 -0.302774
0.223000 -0.270871
0.224000 -0.277240
0.225000 -0.280775
0.226000 -0.252664
0.227000 -0.280603
0.228000 -0.278474
0.229000 -0.290766
0.230000 -0.321991
0.231000 -0.287282
0.232000 -0.315349
0.233000 -0.312853
0.234000 -0.323510
0.235000 -0.310817
0.236000 -0.301561
0.237000 -0.322363
0.238000 -0.312202
0.239000 -0.282530
0.240000 -0.265172
0.241000 -0.280555
0.242000 -0.282130
0.243000 -0.276246
0.244000 -0.241019
0.245000 -0.256362
0.246000 -0.253141
0.247000 -0.283775
0.248000 -0.289590
0.249000 -0.304926
0.250000 -0.283128
0.251000 -0.296688
0.252000 -0.306861
0.253000 -0.306267
0.254000 -0.307547
0.255000 -0.287601
0.256000 -0.299235
0.257000 -0.321952
0.258000 -0.309758
0.259000 -0.300381
0.260000 -0.286476
0.261000 -0.313389
0.262000 -0.311198
0.263000 -0.327554
0.264000 -0.310839
0.265000 -0.287205
0.266000 -0.284439
0.267000 -0.287843
0.268000 -0.313991
0.269000 -0.263746
0.270000 -0.263684
0.271000 -0.265145
0.272000 -0.274763
0.273000 -0.305532
0.274000 -0.288223
0.275000 -0.305496
0.276000 -0.303284
0.277000 -0.313332
0.278000 -0.295796
0.279000 -0.294335
0.280000 -0.309592
0.281000 -0.286202
0.282000 -0.286141
0.283000 -0.287863
0.284000 -0.301186
0.285000 -0.317095
0.286000 -0.293736
0.287000 -0.307468
0.288000 -0.300222
0.289000 -0.294421
0.290000 -0.309260
0.291000 -0.308340
0.292000 -0.313407
0.293000 -0.329065
0.294000 -0.322479
0.295000 -0.318367
0.296000 -0.321583
0.297000 -0.305788
0.298000 -0.314673
0.299000 -0.288551
0.300000 -0.281132
0.301000 -0.281164
0.302000 -0.297940
0.303000 -0.268991
0.304000 -0.287075
0.305000 -0.273204
0.306000 -0.271893
0.307000 -0.273385
0.308000 -0.277200
0.309000 -0.312891
0.310000 -0.278784
0.311000 -0.275691
0.312000 -0.277674
0.313000 -0.281253
0.314000 -0.295468
0.315000 -0.292047
0.316000 -0.275006
0.317000 -0.301851
0.318000 -0.306965
0.319000 -0.268935
0.320000 -0.283174
0.321000 -0.285434
0.322000 -0.275772
0.323000 -0.281823
0.324000 -0.288543
0.325000 -0.273190
0.326000 -0.271870
0.327000 -0.288817
0.328000 -0.263341
0.329000 -0.285373
0.330000 -0.250615
0.331000 -0.241494
0.332000 -0.260759
0.333000 -0.250850
0.334000 -0.250504
0.335000 -0.270979
0.336000 -0.265719
0.337000 -0.266508
0.338000 -0.270496
0.339000 -0.268816
0.340000 -0.259759
0.341000 -0.245928
0.342000 -0.231524
0.343000 -0.224569
0.344000 -0.231237
0.345000 -0.238512
0.346000 -0.242205
0.347000 -0.238860
0.348000 -0.232543
0.349000 -0.267741
0.350000 -0.243602
0.351000 -0.262782
0.352000 -0.250262
0.353000 -0.252517
0.354000 -0.236898
0.355000 -0.273864
0.356000 -0.254621
0.357000 -0.282293
0.358000 -0.264504
0.359000 -0.254927
0.360000 -0.223310
0.361000 -0.255071
0.362000 -0.229930
0.363000 -0.259728
0.364000 -0.252448
0.365000 -0.242006
0.366000 -0.272195
0.367000 -0.235209
0.368000 -0.222590
0.369000 -0.227043
0.370000 -0.234912
0.371000 -0.230644
0.372000 -0.261225
0.373000 -0.267431
0.374000 -0.254479
0.375000 -0.264279
0.376000 -0.268626
0.377000 -0.253919
0.378000 -0.259845
0.379000 -0.252716
0.380000 -0.213683
0.381000 -0.251579
0.382000 -0.254436
0.383000 -0.285789
0.384000 -0.260805
0.385000 -0.296293
0.386000 -0.259726
0.387000 -0.304180
0.388000 -0.302914
0.389000 -0.294623
0.390000 -0.276758
0.391000 -0.297731
0.392000 -0.279753
0.393000 -0.286923
0.394000 -0.323400
0.395000 -0.316245
0.396000 -0.308782
0.397000 -0.284732
0.398000 -0.280625
0.399000 -0.327455
0.400000 -0.315733
0.401000 -0.325796
0.402000 -0.282035
0.403000 -0.271336
0.404000 -0.301254
0.405000 -0.256050
0.406000 -0.274800
0.407000 -0.277477
0.408000 -0.291982
0.409000 -0.302080
0.410000 -0.291740
0.411000 -0.302649
0.412000 -0.301454
0.413000 -0.313953
0.414000 -0.318509
0.415000 -0.306564
0.416000 -0.320539
0.417000 -0.319089
0.418000 -0.288570
0.419000 -0.317899
0.420000 -0.326109
0.421000 -0.327617
0.422000 -0.331928
0.423000 -0.315700
0.424000 -0.307071
0.425000 -0.313951
0.426000 -0.320404
0.427000 -0.314694
0.428000 -0.297586
0.429000 -0.306575
0.430000 -0.319423
0.431000 -0.312938
0.432000 -0.299871
0.433000 -0.294458
0.434000 -0.299874
0.435000 -0.310676
0.436000 -0.325739
0.437000 -0.297750
0.438000 -0.291528
0.439000 -0.281662
0.440000 -0.306115
0.441000 -0.314024
0.442000 -0.314674
0.443000 -0.332428
0.444000 -0.315308
0.445000 -0.330264
0.446000 -0.327836
0.447000 -0.319718
0.448000 -0.313562
0.449000 -0.344944
0.450000 -0.354154
0.451000 -0.322030
0.452000 -0.350852
0.453000 -0.317021
0.454000 -0.310325
0.455000 -0.296551
0.456000 -0.307294
0.457000 -0.289999
0.458000 -0.336313
0.459000 -0.309979
0.460000 -0.301689
0.461000 -0.313917
0.462000 -0.330599
0.463000 -0.336802
0.464000 -0.311380
0.465000 -0.317654
0.466000 -0.327117
0.467000 -0.325070
0.468000 -0.294592
0.469000 -0.305482
0.470000 -0.334981
0.471000 -0.334657
0.472000 -0.305242
0.473000 -0.324243
0.474000 -0.313905
0.475000 -0.309259
0.476000 -0.318190
0.477000 -0.317186
0.478000 -0.307328
0.479000 -0.323298
0.480000 -0.312723
0.481000 -0.339134
0.482000 -0.333008
0.483000 -0.336293
0.484000 -0.358186
0.485000 -0.360793
0.486000 -0.373365
0.487000 -0.360860
0.488000 -0.368814
0.489000 -0.380960
0.490000 -0.381525
0.491000 -0.365618
0.492000 -0.375371
0.493000 -0.357062
0.494000 -0.370239
0.495000 -0.350387
0.496000 -0.343783
0.497000 -0.333924
0.498000 -0.315614
0.499000 -0.313180
0.500000 -0.305480
0.501000 -0.263169
0.502000 -0.242117
0.503000 -0.250812
0.504000 -0.258888
0.505000 -0.265713
0.506000 -0.251080
0.507000 -0.243273
0.508000 -0.213242
0.509000 -0.183215
0.510000 -0.203626
0.511000 -0.152777
0.512000 -0.156902
0.513000 -0.142852
0.514000 -0.093023
0.515000 -0.071591
0.516000 -0.079018
0.517000 -0.032289
0.518000 0.014270
0.519000 0.059158
0.520000 0.111721
0.521000 0.143163
0.522000 0.114673
0.523000 0.078552
0.524000 0.049052
0.525000 0.019760
0.526000 -0.011749
0.527000 -0.030671
0.528000 -0.045457
0.529000 -0.104841
0.530000 -0.124299
0.531000 -0.163946
0.532000 -0.201431
0.533000 -0.210491
0.534000 -0.220566
0.535000 -0.241417
0.536000 -0.267967
0.537000 -0.306732
0.538000 -0.323152
0.539000 -0.330675
0.540000 -0.319342
0.541000 -0.329028
0.542000 -0.337242
0.543000 -0.322592
0.544000 -0.315349
0.545000 -0.318710
0.546000 -0.357515
0.547000 -0.331158
0.548000 -0.358694
0.549000 -0.361473
0.550000 -0.365547
0.551000 -0.368687
0.552000 -0.343213
0.553000 -0.353707
0.554000 -0.338671
0.555000 -0.303212
0.556000 -0.317025
0.557000 -0.299795
0.558000 -0.302440
0.559000 -0.299346
0.560000 -0.303079
0.561000 -0.324191
0.562000 -0.304133
0.563000 -0.298620
0.564000 -0.302274
0.565000 -0.297636
0.566000 -0.320308
0.567000 -0.332163
0.568000 -0.314484
0.569000 -0.324007
0.570000 -0.329355
0.571000 -0.298940
0.572000 -0.349821
0.573000 -0.315475
0.574000 -0.346826
0.575000 -0.317259
0.576000 -0.304816
0.577000 -0.321853
0.578000 -0.326778
0.579000 -0.291048
0.580000 -0.296681
0.581000 -0.310479
0.582000 -0.319753
0.583000 -0.286937
0.584000 -0.273303
0.585000 -0.267254
0.586000 -0.296107
0.587000 -0.326068
0.588000 -0.308863
0.589000 -0.329989
0.590000 -0.329019
0.591000 -0.288719
0.592000 -0.324305
0.593000 -0.305391
0.594000 -0.308605
0.595000 -0.310729
0.596000 -0.320841
0.597000 -0.298775
0.598000 -0.332349
0.599000 -0.315200
0.600000 -0.291489
0.601000 -0.307841
0.602000 -0.301937
0.603000 -0.268964
0.604000 -0.271369
0.605000 -0.293058
0.606000 -0.294247
0.607000 -0.308868
0.608000 -0.283447
0.609000 -0.309270
0.610000 -0.320839
0.611000 -0.310911
0.612000 -0.316588
0.613000 -0.314469
0.614000 -0.326338
0.615000 -0.305908
0.616000 -0.312203
0.617000 -0.324787
0.618000 -0.316606
0.619000 -0.288065
0.620000 -0.276505
0.621000 -0.281685
0.622000 -0.290255
0.623000 -0.306418
0.624000 -0.286448
0.625000 -0.306816
0.626000 -0.299978
0.627000 -0.300205
0.628000 -0.335293
0.629000 -0.317232
0.630000 -0.316174
0.631000 -0.328294
0.632000 -0.322808
0.633000 -0.327243
0.634000 -0.335699
0.635000 -0.318670
0.636000 -0.324365
0.637000 -0.311533
0.638000 -0.304233
0.639000 -0.298768
0.640000 -0.282655
0.641000 -0.286257
0.642000 -0.301216
0.643000 -0.297126
0.644000 -0.311639
0.645000 -0.315538
0.646000 -0.314014
0.647000 -0.311581
0.648000 -0.286009
0.649000 -0.291366
0.650000 -0.299721
0.651000 -0.305305
0.652000 -0.328938
0.653000 -0.323314
0.654000 -0.313454
0.655000 -0.320166
0.656000 -0.307366
0.657000 -0.316213
0.658000 -0.304152
0.659000 -0.272390
0.660000 -0.303760
0.661000 -0.294434
0.662000 -0.292532
0.663000 -0.296391
0.664000 -0.311480
0.665000 -0.304351
0.666000 -0.303726
0.667000 -0.336807
0.668000 -0.334399
0.669000 -0.308362
0.670000 -0.340665
0.671000 -0.297782
0.672000 -0.318007
0.673000 -0.326049
0.674000 -0.308013
0.675000 -0.320007
0.676000 -0.285048
0.677000 -0.289582
0.678000 -0.273177
0.679000 -0.286438
0.680000 -0.277685
0.681000 -0.300677
0.682000 -0.300953
0.683000 -0.299457
0.684000 -0.286868
0.685000 -0.288019
0.686000 -0.308162
0.687000 -0.318881
0.688000 -0.269934
0.689000 -0.289888
0.690000 -0.285492
0.691000 -0.306881
0.692000 -0.289288
0.693000 -0.289432
0.694000 -0.314040
0.695000 -0.311845
0.696000 -0.294093
0.697000 -0.295809
0.698000 -0.309346
0.699000 -0.325715
0.700000 -0.295363
0.701000 -0.283911
0.702000 -0.276939
0.703000 -0.263805
0.704000 -0.242033
0.705000 -0.309086
0.706000 -0.293666
0.707000 -0.287028
0.708000 -0.274908
0.709000 -0.288501
0.710000 -0.282647
0.711000 -0.292803
0.712000 -0.287572
0.713000 -0.298809
0.714000 -0.308401
0.715000 -0.302621
0.716000 -0.331469
0.717000 -0.327138
0.718000 -0.307576
0.719000 -0.281494
0.720000 -0.251393
0.721000 -0.279910
0.722000 -0.295800
0.723000 -0.278050
0.724000 -0.298505
0.725000 -0.297214
0.726000 -0.280256
0.727000 -0.263270
0.728000 -0.273270
0.729000 -0.261186
0.730000 -0.289691
0.731000 -0.288780
0.732000 -0.295003
0.733000 -0.288505
0.734000 -0.281109
0.735000 -0.277273
0.736000 -0.298641
0.737000 -0.268876
0.738000 -0.299459
0.739000 -0.261142
0.740000 -0.263169
0.741000 -0.249830
0.742000 -0.264839
0.743000 -0.277759
0.744000 -0.253437
0.745000 -0.232846
0.746000 -0.279077
0.747000 -0.263050
0.748000 -0.269024
0.749000 -0.267110
0.750000 -0.257181
0.751000 -0.282283
0.752000 -0.288672
0.753000 -0.272502
0.754000 -0.262010
0.755000 -0.254378
0.756000 -0.270390
0.757000 -0.259221
0.758000 -0.282636
0.759000 -0.289122
0.760000 -0.279584
0.761000 -0.291374
0.762000 -0.266242
0.763000 -0.283652
0.764000 -0.280394
0.765000 -0.271966
0.766000 -0.262809
0.767000 -0.244337
0.768000 -0.274806
0.769000 -0.263517
0.770000 -0.263435
0.771000 -0.262049
0.772000 -0.256588
0.773000 -0.275318
0.774000 -0.241107
0.775000 -0.229057
0.776000 -0.269768
0.777000 -0.271154
0.778000 -0.297623
0.779000 -0.267131
0.780000 -0.260977
0.781000 -0.249726
0.782000 -0.281186
0.783000 -0.244068
0.784000 -0.262731
0.785000 -0.249861
0.786000 -0.271318
0.787000 -0.260780
0.788000 -0.272522
0.789000 -0.258973
0.790000 -0.252872
0.791000 -0.251632
0.792000 -0.269043
0.793000 -0.276228
0.794000 -0.265578
0.795000 -0.270629
0.796000 -0.264022
0.797000 -0.276866
0.798000 -0.271161
0.799000 -0.271060
0.800000 -0.273623
0.801000 -0.270963
0.802000 -0.265999
0.803000 -0.283238
0.804000 -0.268999
0.805000 -0.236956
0.806000 -0.272708
0.807000 -0.296297
0.808000 -0.278570
0.809000 -0.274478
0.810000 -0.270220
0.811000 -0.249175
0.812000 -0.252901
0.813000 -0.275551
0.814000 -0.273446
0.815000 -0.275439
0.816000 -0.273107
0.817000 -0.283125
0.818000 -0.281305
0.819000 -0.257106
0.820000 -0.267030
0.821000 -0.275861
0.822000 -0.233220
0.823000 -0.230594
0.824000 -0.241849
0.825000 -0.259920
0.826000 -0.238716
0.827000 -0.263532
0.828000 -0.254364
0.829000 -0.281487
0.830000 -0.270622
0.831000 -0.288894
0.832000 -0.301244
0.833000 -0.273884
0.834000 -0.260120
0.835000 -0.253353
0.836000 -0.266492
0.837000 -0.267483
0.838000 -0.258279
0.839000 -0.215895
0.840000 -0.236829
0.841000 -0.245047
0.842000 -0.233093
0.843000 -0.265326
0.844000 -0.275828
0.845000 -0.280926
0.846000 -0.244545
0.847000 -0.281769
0.848000 -0.290777
0.849000 -0.262846
0.850000 -0.268857
0.851000 -0.262642
0.852000 -0.237952
0.853000 -0.262430
0.854000 -0.238071
0.855000 -0.239066
0.856000 -0.251422
0.857000 -0.259101
0.858000 -0.251569
0.859000 -0.222319
0.860000 -0.258937
0.861000 -0.262306
0.862000 -0.266651
0.863000 -0.254480
0.864000 -0.251368
0.865000 -0.231152
0.866000 -0.237790
0.867000 -0.221120
0.868000 -0.262568
0.869000 -0.275011
0.870000 -0.237819
0.871000 -0.259772
0.872000 -0.255379
0.873000 -0.235691
0.874000 -0.245628
0.875000 -0.259978
0.876000 -0.264104
0.877000 -0.254056
0.878000 -0.249649
0.879000 -0.258732
0.880000 -0.262412
0.881000 -0.256762
0.882000 -0.234019
0.883000 -0.258148
0.884000 -0.227513
0.885000 -0.229714
0.886000 -0.232677
0.887000 -0.222699
0.888000 -0.206081
0.889000 -0.220499
0.890000 -0.216178
0.891000 -0.242974
0.892000 -0.251087
0.893000 -0.253748
0.894000 -0.251498
0.895000 -0.254085
0.896000 -0.260546
0.897000 -0.235003
0.898000 -0.241217
0.899000 -0.229864
0.900000 -0.251099
0.901000 -0.228457
0.902000 -0.232113
0.903000 -0.221684
0.904000 -0.227347
0.905000 -0.222974
0.906000 -0.235430
0.907000 -0.223750
0.908000 -0.211419
0.909000 -0.241173
0.910000 -0.228819
0.911000 -0.195676
0.912000 -0.237661
0.913000 -0.201689
0.914000 -0.218853
0.915000 -0.208844
0.916000 -0.208552
0.917000 -0.198700
0.918000 -0.187634
0.919000 -0.241066
0.920000 -0.209327
0.921000 -0.219248
0.922000 -0.207756
0.923000 -0.186295
0.924000 -0.187794
0.925000 -0.179678
0.926000 -0.194699
0.927000 -0.217965
0.928000 -0.198551
0.929000 -0.199550
0.930000 -0.168299
0.931000 -0.186286
0.932000 -0.187896
0.933000 -0.185193
0.934000 -0.192012
0.935000 -0.194415
0.936000 -0.209556
0.937000 -0.170704
0.938000 -0.207673
0.939000 -0.187233
0.940000 -0.177560
0.941000 -0.179004
0.942000 -0.185166
0.943000 -0.188751
0.944000 -0.174025
0.945000 -0.194843
0.946000 -0.181563
0.947000 -0.202900
0.948000 -0.183120
0.949000 -0.180921
0.950000 -0.184339
0.951000 -0.194346
0.952000 -0.201286
0.953000 -0.188930
0.954000 -0.190015
0.955000 -0.200293
0.956000 -0.186438
0.957000 -0.184701
0.958000 -0.208582
0.959000 -0.212463
0.960000 -0.171592
0.961000 -0.183253
0.962000 -0.189862
0.963000 -0.155742
0.964000 -0.154877
0.965000 -0.168604
0.966000 -0.187360
0.967000 -0.186417
0.968000 -0.179822
0.969000 -0.211610
0.970000 -0.205558
0.971000 -0.232589
0.972000 -0.231386
0.973000 -0.233635
0.974000 -0.232199
0.975000 -0.230737
0.976000 -0.220201
0.977000 -0.200332
0.978000 -0.193984
0.979000 -0.227203
0.980000 -0.239277
0.981000 -0.249311
0.982000 -0.243179
0.983000 -0.222889
0.984000 -0.222273
0.985000 -0.225037
0.986000 -0.255285
0.987000 -0.212456
0.988000 -0.190740
0.989000 -0.208316
0.990000 -0.207807
0.991000 -0.196139
0.992000 -0.215466
0.993000 -0.232849
0.994000 -0.256983
0.995000 -0.240473
0.996000 -0.249552
0.997000 -0.261114
0.998000 -0.254048
0.999000 -0.226774
1.000000 -0.220001
1.001000 -0.222102
1.002000 -0.212215
1.003000 -0.202730
1.004000 -0.201562
1.005000 -0.212238
1.006000 -0.229874
1.007000 -0.236758
1.008000 -0.235305
1.009000 -0.241270
1.010000 -0.243343
1.011000 -0.244220
1.012000 -0.255179
1.013000 -0.230184
1.014000 -0.251539
1.015000 -0.250736
1.016000 -0.263580
1.017000 -0.198582
1.018000 -0.215991
1.019000 -0.231028
1.020000 -0.240876
1.021000 -0.204541
1.022000 -0.222648
1.023000 -0.219016
1.024000 -0.188946
1.025000 -0.191148
1.026000 -0.215231
1.027000 -0.223238
1.028000 -0.238514
1.029000 -0.219937
1.030000 -0.233546
1.031000 -0.246220
1.032000 -0.270306
1.033000 -0.284988
1.034000 -0.245263
1.035000 -0.267464
1.036000 -0.261199
1.037000 -0.236090
1.038000 -0.235015
1.039000 -0.229240
1.040000 -0.227072
1.041000 -0.199556
1.042000 -0.207258
1.043000 -0.217540
1.044000 -0.205238
1.045000 -0.221750
1.046000 -0.217241
1.047000 -0.241366
1.048000 -0.247959
1.049000 -0.216289
1.050000 -0.262967
1.051000 -0.242561
1.052000 -0.222030
1.053000 -0.236098
1.054000 -0.234195
1.055000 -0.230998
1.056000 -0.233487
1.057000 -0.227943
1.058000 -0.245353
1.059000 -0.232457
1.060000 -0.223732
1.061000 -0.199736
1.062000 -0.195713
1.063000 -0.224503
1.064000 -0.228749
1.065000 -0.245274
1.066000 -0.229356
1.067000 -0.269605
1.068000 -0.247215
1.069000 -0.255471
1.070000 -0.242083
1.071000 -0.234472
1.072000 -0.261278
1.073000 -0.241630
1.074000 -0.247219
1.075000 -0.249449
1.076000 -0.259476
1.077000 -0.274458
1.078000 -0.300824
1.079000 -0.266529
1.080000 -0.281500
1.081000 -0.262522
1.082000 -0.244879
1.083000 -0.232130
1.084000 -0.217319
1.085000 -0.229653
1.086000 -0.237322
1.087000 -0.227705
1.088000 -0.222864
1.089000 -0.215355
1.090000 -0.161296
1.091000 -0.165682
1.092000 -0.175623
1.093000 -0.203340
1.094000 -0.185402
1.095000 -0.185438
1.096000 -0.158663
1.097000 -0.146087
1.098000 -0.111535
1.099000 -0.057677
1.100000 -0.078132
1.101000 -0.031516
1.102000 -0.019335
1.103000 -0.017990
1.104000 0.020085
1.105000 0.079432
1.106000 0.082562
1.107000 0.099528
1.108000 0.132879
1.109000 0.176251
1.110000 0.231974
1.111000 0.255678
1.112000 0.219090
1.113000 0.170146
1.114000 0.137236
1.115000 0.104282
1.116000 0.096099
1.117000 0.060792
1.118000 0.049859
1.119000 0.012717
1.120000 -0.039849
1.121000 -0.096164
1.122000 -0.081836
1.123000 -0.081467
1.124000 -0.098084
1.125000 -0.114847
1.126000 -0.128043
1.127000 -0.174587
1.128000 -0.195138
1.129000 -0.202461
1.130000 -0.198162
1.131000 -0.223010
1.132000 -0.232418
1.133000 -0.254611
1.134000 -0.268950
1.135000 -0.261923
1.136000 -0.265722
1.137000 -0.266099
1.138000 -0.270526
1.139000 -0.249560
1.140000 -0.238996
1.141000 -0.229142
1.142000 -0.222695
1.143000 -0.193087
1.144000 -0.187577
1.145000 -0.198391
1.146000 -0.194048
1.147000 -0.193003
1.148000 -0.191317
1.149000 -0.160413
1.150000 -0.191308
1.151000 -0.175562
1.152000 -0.197194
1.153000 -0.192136
1.154000 -0.228007
1.155000 -0.220317
1.156000 -0.232894
1.157000 -0.188443
1.158000 -0.193997
1.159000 -0.181265
1.160000 -0.173347
1.161000 -0.164479
1.162000 -0.181507
1.163000 -0.171701
1.164000 -0.171936
1.165000 -0.176643
1.166000 -0.173668
1.167000 -0.207565
1.168000 -0.208432
1.169000 -0.186898
1.170000 -0.189030
1.171000 -0.201378
1.172000 -0.184418
1.173000 -0.226512
1.174000 -0.219617
1.175000 -0.220825
1.176000 -0.215219
1.177000 -0.177891
1.178000 -0.177474
1.179000 -0.174358
1.180000 -0.187581
1.181000 -0.178186
1.182000 -0.196184
1.183000 -0.207209
1.184000 -0.203195
1.185000 -0.192784
1.186000 -0.196624
1.187000 -0.188921
1.188000 -0.198280
1.189000 -0.199966
1.190000 -0.190508
1.191000 -0.190829
1.192000 -0.185755
1.193000 -0.205079
1.194000 -0.167594
1.195000 -0.165657
1.196000 -0.161056
1.197000 -0.186496
1.198000 -0.216221
1.199000 -0.203732
1.200000 -0.186644
1.201000 -0.199964
1.202000 -0.167079
1.203000 -0.166680
1.204000 -0.166477
1.205000 -0.163746
1.206000 -0.167374
1.207000 -0.194632
1.208000 -0.172819
1.209000 -0.167012
1.210000 -0.178816
1.211000 -0.172071
1.212000 -0.185344
1.213000 -0.174767
1.214000 -0.181841
1.215000 -0.194543
1.216000 -0.199320
1.217000 -0.203952
1.218000 -0.183070
1.219000 -0.186508
1.220000 -0.185042
1.221000 -0.194908
1.222000 -0.175532
1.223000 -0.182844
1.224000 -0.165248
1.225000 -0.168507
1.226000 -0.191821
1.227000 -0.202676
1.228000 -0.194803
1.229000 -0.196406
1.230000 -0.198657
1.231000 -0.198396
1.232000 -0.187056
1.233000 -0.197502
1.234000 -0.206509
1.235000 -0.211363
1.236000 -0.181547
1.237000 -0.205796
1.238000 -0.153784
1.239000 -0.140716
1.240000 -0.174787
1.241000 -0.178360
1.242000 -0.173073
1.243000 -0.155439
1.244000 -0.179426
1.245000 -0.176185
1.246000 -0.186700
1.247000 -0.163266
1.248000 -0.185302
1.249000 -0.165040
1.250000 -0.177768
1.251000 -0.171568
1.252000 -0.169554
1.253000 -0.197730
1.254000 -0.188401
1.255000 -0.174702
1.256000 -0.181906
1.257000 -0.200661
1.258000 -0.171960
1.259000 -0.180450
1.260000 -0.188987
1.261000 -0.161456
1.262000 -0.156871
1.263000 -0.162291
1.264000 -0.200796
1.265000 -0.181204
1.266000 -0.194118
1.267000 -0.171459
1.268000 -0.172819
1.269000 -0.181459
1.270000 -0.179227
1.271000 -0.172489
1.272000 -0.173886
1.273000 -0.174572
1.274000 -0.175015
1.275000 -0.187217
1.276000 -0.187645
1.277000 -0.186792
1.278000 -0.185263
1.279000 -0.174079
1.280000 -0.166388
1.281000 -0.156148
1.282000 -0.167819
1.283000 -0.191019
1.284000 -0.176011
1.285000 -0.180309
1.286000 -0.159199
1.287000 -0.159062
1.288000 -0.139552
1.289000 -0.167718
1.290000 -0.163772
1.291000 -0.168345
1.292000 -0.176342
1.293000 -0.188263
1.294000 -0.180341
1.295000 -0.147183
1.296000 -0.172281
1.297000 -0.198367
1.298000 -0.147324
1.299000 -0.176927
1.300000 -0.150609
1.301000 -0.141674
1.302000 -0.137005
1.303000 -0.147893
1.304000 -0.141104
1.305000 -0.149694
1.306000 -0.150052
1.307000 -0.162919
1.308000 -0.170567
1.309000 -0.158140
1.310000 -0.174047
1.311000 -0.169022
1.312000 -0.156240
1.313000 -0.154980
1.314000 -0.156360
1.315000 -0.155994
1.316000 -0.161972
1.317000 -0.153806
1.318000 -0.159026
1.319000 -0.158931
1.320000 -0.179176
1.321000 -0.155239
1.322000 -0.151113
1.323000 -0.147443
1.324000 -0.122133
1.325000 -0.126938
1.326000 -0.135536
1.327000 -0.162096
1.328000 -0.154255
1.329000 -0.144040
1.330000 -0.159107
1.331000 -0.138376
1.332000 -0.154817
1.333000 -0.138165
1.334000 -0.165050
1.335000 -0.168983
1.336000 -0.158122
1.337000 -0.152300
1.338000 -0.161325
1.339000 -0.158684
1.340000 -0.166264
1.341000 -0.138230
1.342000 -0.143148
1.343000 -0.105441
1.344000 -0.099384
1.345000 -0.101438
1.346000 -0.120985
1.347000 -0.148983
1.348000 -0.127643
1.349000 -0.125548
1.350000 -0.123492
1.351000 -0.139269
1.352000 -0.122189
1.353000 -0.119367
1.354000 -0.126598
1.355000 -0.119941
1.356000 -0.112060
1.357000 -0.129815
1.358000 -0.150809
1.359000 -0.151225
1.360000 -0.148036
1.361000 -0.158766
1.362000 -0.157142
1.363000 -0.159607
1.364000 -0.135654
1.365000 -0.161916
1.366000 -0.121696
1.367000 -0.141269
1.368000 -0.133649
1.369000 -0.159903
1.370000 -0.142126
1.371000 -0.141792
1.372000 -0.157906
1.373000 -0.170210
1.374000 -0.152324
1.375000 -0.149789
1.376000 -0.146538
1.377000 -0.161834
1.378000 -0.188580
1.379000 -0.136457
1.380000 -0.146306
1.381000 -0.155365
1.382000 -0.144637
1.383000 -0.168283
1.384000 -0.141760
1.385000 -0.127781
1.386000 -0.162797
1.387000 -0.107638
1.388000 -0.126261
1.389000 -0.142453
1.390000 -0.150199
1.391000 -0.153371
1.392000 -0.197458
1.393000 -0.180659
1.394000 -0.200341
1.395000 -0.185350
1.396000 -0.170748
1.397000 -0.147794
1.398000 -0.158035
1.399000 -0.140456
1.400000 -0.129971
1.401000 -0.155363
1.402000 -0.156103
1.403000 -0.145243
1.404000 -0.131163
1.405000 -0.130591
1.406000 -0.125045
1.407000 -0.126058
1.408000 -0.154839
1.409000 -0.143236
1.410000 -0.155858
1.411000 -0.179497
1.412000 -0.171054
1.413000 -0.196674
1.414000 -0.174705
1.415000 -0.181567
1.416000 -0.179800
1.417000 -0.153527
1.418000 -0.141323
1.419000 -0.142713
1.420000 -0.169776
1.421000 -0.169274
1.422000 -0.153942
1.423000 -0.123458
1.424000 -0.149618
1.425000 -0.164904
1.426000 -0.139683
1.427000 -0.194064
1.428000 -0.196799
1.429000 -0.173693
1.430000 -0.154471
1.431000 -0.167128
1.432000 -0.160854
1.433000 -0.154085
1.434000 -0.181509
1.435000 -0.171169
1.436000 -0.177933
1.437000 -0.169609
1.438000 -0.161433
1.439000 -0.208393
1.440000 -0.170542
1.441000 -0.148207
1.442000 -0.171461
1.443000 -0.150939
1.444000 -0.136342
1.445000 -0.150304
1.446000 -0.141607
1.447000 -0.140792
1.448000 -0.173639
1.449000 -0.209087
1.450000 -0.171699
1.451000 -0.182499
1.452000 -0.175286
1.453000 -0.143175
1.454000 -0.137713
1.455000 -0.154235
1.456000 -0.138166
1.457000 -0.166555
1.458000 -0.156663
1.459000 -0.175788
1.460000 -0.153874
1.461000 -0.172361
1.462000 -0.178669
1.463000 -0.179366
1.464000 -0.165311
1.465000 -0.132989
1.466000 -0.149525
1.467000 -0.131921
1.468000 -0.129757
1.469000 -0.102145
1.470000 -0.131361
1.471000 -0.158720
1.472000 -0.162871
1.473000 -0.168620
1.474000 -0.179435
1.475000 -0.197393
1.476000 -0.176390
1.477000 -0.162626
1.478000 -0.164000
1.479000 -0.148415
1.480000 -0.155076
1.481000 -0.154665
1.482000 -0.154874
1.483000 -0.146536
1.484000 -0.145780
1.485000 -0.146648
1.486000 -0.139986
1.487000 -0.139307
1.488000 -0.145115
1.489000 -0.131276
1.490000 -0.132115
1.491000 -0.138161
1.492000 -0.145708
1.493000 -0.125782
1.494000 -0.170325
1.495000 -0.144219
1.496000 -0.151141
1.497000 -0.137704
1.498000 -0.137401
1.499000 -0.116393
1.500000 -0.149861
1.501000 -0.113221
1.502000 -0.120328
1.503000 -0.113270
1.504000 -0.108305
1.505000 -0.127321
1.506000 -0.130641
1.507000 -0.114896
1.508000 -0.098057
1.509000 -0.104042
1.510000 -0.111950
1.511000 -0.089707
1.512000 -0.088277
1.513000 -0.107192
1.514000 -0.154489
1.515000 -0.131418
1.516000 -0.162474
1.517000 -0.158021
1.518000 -0.120068
1.519000 -0.112032
1.520000 -0.109949
1.521000 -0.096180
1.522000 -0.123991
1.523000 -0.115182
1.524000 -0.091250
1.525000 -0.088755
1.526000 -0.089305
1.527000 -0.075338
1.528000 -0.095457
1.529000 -0.096046
1.530000 -0.116507
1.531000 -0.123049
1.532000 -0.106143
1.533000 -0.116869
1.534000 -0.108491
1.535000 -0.110462
1.536000 -0.111328
1.537000 -0.106583
1.538000 -0.103126
1.539000 -0.126255
1.540000 -0.117748
1.541000 -0.097485
1.542000 -0.106482
1.543000 -0.137892
1.544000 -0.132695
1.545000 -0.110969
1.546000 -0.110488
1.547000 -0.106513
1.548000 -0.110958
1.549000 -0.115997
1.550000 -0.127718
1.551000 -0.109176
1.552000 -0.125229
1.553000 -0.129564
1.554000 -0.128450
1.555000 -0.133797
1.556000 -0.143552
1.557000 -0.156628
1.558000 -0.140492
1.559000 -0.135025
1.560000 -0.136659
1.561000 -0.145990
1.562000 -0.154462
1.563000 -0.152645
1.564000 -0.169092
1.565000 -0.166296
1.566000 -0.169091
1.567000 -0.170517
1.568000 -0.166006
1.569000 -0.158981
1.570000 -0.149899
1.571000 -0.143375
1.572000 -0.136903
1.573000 -0.148035
1.574000 -0.157897
1.575000 -0.154447
1.576000 -0.158984
1.577000 -0.168410
1.578000 -0.157548
1.579000 -0.165107
1.580000 -0.179465
1.581000 -0.160524
1.582000 -0.153529
1.583000 -0.160760
1.584000 -0.129882
1.585000 -0.173116
1.586000 -0.187660
1.587000 -0.187223
1.588000 -0.173376
1.589000 -0.180489
1.590000 -0.151456
1.591000 -0.140141
1.592000 -0.175864
1.593000 -0.178685
1.594000 -0.191367
1.595000 -0.192843
1.596000 -0.219702
1.597000 -0.189153
1.598000 -0.185193
1.599000 -0.189338
1.600000 -0.195993
1.601000 -0.176275
1.602000 -0.162954
1.603000 -0.146899
1.604000 -0.179237
1.605000 -0.199166
1.606000 -0.175413
1.607000 -0.175005
1.608000 -0.167756
1.609000 -0.166435
1.610000 -0.164334
1.611000 -0.186317
1.612000 -0.210332
1.613000 -0.173653
1.614000 -0.170710
1.615000 -0.183432
1.616000 -0.163779
1.617000 -0.179927
1.618000 -0.168400
1.619000 -0.189419
1.620000 -0.167459
1.621000 -0.168471
1.622000 -0.184953
1.623000 -0.176928
1.624000 -0.172494
1.625000 -0.179171
1.626000 -0.193964
1.627000 -0.186490
1.628000 -0.186120
1.629000 -0.184641
1.630000 -0.175555
1.631000 -0.166104
1.632000 -0.193555
1.633000 -0.185004
1.634000 -0.163961
1.635000 -0.170411
1.636000 -0.190091
1.637000 -0.176360
1.638000 -0.181656
1.639000 -0.204438
1.640000 -0.181633
1.641000 -0.172573
1.642000 -0.197085
1.643000 -0.182688
1.644000 -0.187447
1.645000 -0.188310
1.646000 -0.188381
1.647000 -0.178542
1.648000 -0.178502
1.649000 -0.171348
1.650000 -0.192485
1.651000 -0.187814
1.652000 -0.178475
1.653000 -0.187039
1.654000 -0.183118
1.655000 -0.192171
1.656000 -0.203684
1.657000 -0.227795
1.658000 -0.202693
1.659000 -0.210104
1.660000 -0.231792
1.661000 -0.245702
1.662000 -0.230859
1.663000 -0.235701
1.664000 -0.226471
1.665000 -0.233053
1.666000 -0.227031
1.667000 -0.211055
1.668000 -0.243527
1.669000 -0.226606
1.670000 -0.261607
1.671000 -0.238722
1.672000 -0.211973
1.673000 -0.171814
1.674000 -0.156823
1.675000 -0.145133
1.676000 -0.138594
1.677000 -0.124666
1.678000 -0.136967
1.679000 -0.112789
1.680000 -0.107070
1.681000 -0.084926
1.682000 -0.066140
1.683000 -0.061127
1.684000 -0.047215
1.685000 -0.028638
1.686000 -0.002187
1.687000 0.014775
1.688000 0.051724
1.689000 0.098379
1.690000 0.076369
1.691000 0.097851
1.692000 0.135449
1.693000 0.219633
1.694000 0.256693
1.695000 0.276698
1.696000 0.239543
1.697000 0.186703
1.698000 0.135400
1.699000 0.127470
1.700000 0.121945
1.701000 0.114307
1.702000 0.097861
1.703000 0.046971
1.704000 -0.006302
1.705000 -0.041945
1.706000 -0.066987
1.707000 -0.102814
1.708000 -0.099169
1.709000 -0.130184
1.710000 -0.158981
1.711000 -0.141300
1.712000 -0.176538
1.713000 -0.185777
1.714000 -0.207744
1.715000 -0.237739
1.716000 -0.219358
1.717000 -0.222763
1.718000 -0.213507
1.719000 -0.215996
1.720000 -0.238484
1.721000 -0.234905
1.722000 -0.206944
1.723000 -0.212292
1.724000 -0.221804
1.725000 -0.237675
1.726000 -0.220908
1.727000 -0.200960
1.728000 -0.199702
1.729000 -0.225481
1.730000 -0.209755
1.731000 -0.219895
1.732000 -0.187297
1.733000 -0.186926
1.734000 -0.200452
1.735000 -0.192192
1.736000 -0.195450
1.737000 -0.201854
1.738000 -0.191670
1.739000 -0.165071
1.740000 -0.194863
1.741000 -0.182638
1.742000 -0.187848
1.743000 -0.186768
1.744000 -0.167460
1.745000 -0.193777
1.746000 -0.172031
1.747000 -0.187769
1.748000 -0.210418
1.749000 -0.182254
1.750000 -0.173382
1.751000 -0.200265
1.752000 -0.179511
1.753000 -0.205053
1.754000 -0.184371
1.755000 -0.200500
1.756000 -0.210930
1.757000 -0.193898
1.758000 -0.181251
1.759000 -0.191625
1.760000 -0.207990
1.761000 -0.189618
1.762000 -0.186559
1.763000 -0.190292
1.764000 -0.211623
1.765000 -0.184109
1.766000 -0.206736
1.767000 -0.196748
1.768000 -0.204365
1.769000 -0.181288
1.770000 -0.187997
1.771000 -0.196637
1.772000 -0.185448
1.773000 -0.191298
1.774000 -0.182181
1.775000 -0.190842
1.776000 -0.190820
1.777000 -0.189794
1.778000 -0.200373
1.779000 -0.210966
1.780000 -0.203882
1.781000 -0.192544
1.782000 -0.185677
1.783000 -0.159560
1.784000 -0.171126
1.785000 -0.162107
1.786000 -0.170616
1.787000 -0.169068
1.788000 -0.191775
1.789000 -0.180803
1.790000 -0.177330
1.791000 -0.183596
1.792000 -0.172329
1.793000 -0.208374
1.794000 -0.209464
1.795000 -0.197047
1.796000 -0.208779
1.797000 -0.209098
1.798000 -0.195745
1.799000 -0.193715
1.800000 -0.190109
1.801000 -0.170552
1.802000 -0.186565
1.803000 -0.201612
1.804000 -0.204550
1.805000 -0.210193
1.806000 -0.216989
1.807000 -0.218158
1.808000 -0.213863
1.809000 -0.200007
1.810000 -0.203760
1.811000 -0.221926
1.812000 -0.201866
1.813000 -0.222729
1.814000 -0.205668
1.815000 -0.196017
1.816000 -0.208735
1.817000 -0.201506
1.818000 -0.200957
1.819000 -0.192406
1.820000 -0.183433
1.821000 -0.186752
1.822000 -0.171277
1.823000 -0.188604
1.824000 -0.181024
1.825000 -0.198964
1.826000 -0.189714
1.827000 -0.188247
1.828000 -0.201514
1.829000 -0.194197
1.830000 -0.208545
1.831000 -0.216475
1.832000 -0.208325
1.833000 -0.187233
1.834000 -0.234230
1.835000 -0.210048
1.836000 -0.181042
1.837000 -0.175821
1.838000 -0.167954
1.839000 -0.143893
1.840000 -0.165182
1.841000 -0.190328
1.842000 -0.169008
1.843000 -0.165032
1.844000 -0.168542
1.845000 -0.164483
1.846000 -0.182462
1.847000 -0.167590
1.848000 -0.177778
1.849000 -0.171783
1.850000 -0.189016
1.851000 -0.197251
1.852000 -0.210098
1.853000 -0.205672
1.854000 -0.233246
1.855000 -0.226474
1.856000 -0.197261
1.857000 -0.209420
1.858000 -0.215771
1.859000 -0.218501
1.860000 -0.190201
1.861000 -0.204294
1.862000 -0.193832
1.863000 -0.178947
1.864000 -0.193615
1.865000 -0.184168
1.866000 -0.188608
1.867000 -0.178932
1.868000 -0.197114
1.869000 -0.187648
1.870000 -0.185689
1.871000 -0.175143
1.872000 -0.165530
1.873000 -0.159175
1.874000 -0.175312
1.875000 -0.182109
1.876000 -0.180776
1.877000 -0.163856
1.878000 -0.169647
1.879000 -0.200271
1.880000 -0.201760
1.881000 -0.220046
1.882000 -0.205069
1.883000 -0.189413
1.884000 -0.179911
1.885000 -0.168466
1.886000 -0.170854
1.887000 -0.192160
1.888000 -0.188108
1.889000 -0.174881
1.890000 -0.180035
1.891000 -0.196299
1.892000 -0.203450
1.893000 -0.199901
1.894000 -0.221147
1.895000 -0.211126
1.896000 -0.210649
1.897000 -0.196149
1.898000 -0.202185
1.899000 -0.187193
1.900000 -0.135330
1.901000 -0.136833
1.902000 -0.155093
1.903000 -0.167973
1.904000 -0.176758
1.905000 -0.173899
1.906000 -0.151361
1.907000 -0.172972
1.908000 -0.151277
1.909000 -0.164494
1.910000 -0.181519
1.911000 -0.160545
1.912000 -0.153890
1.913000 -0.156728
1.914000 -0.160477
1.915000 -0.139359
1.916000 -0.166675
1.917000 -0.163161
1.918000 -0.199124
1.919000 -0.182580
1.920000 -0.178434
1.921000 -0.178516
1.922000 -0.155736
1.923000 -0.145628
1.924000 -0.164696
1.925000 -0.165229
1.926000 -0.176316
1.927000 -0.164541
1.928000 -0.172047
1.929000 -0.143541
1.930000 -0.153976
1.931000 -0.154624
1.932000 -0.161478
1.933000 -0.157990
1.934000 -0.181820
1.935000 -0.177540
1.936000 -0.165052
1.937000 -0.154882
1.938000 -0.162559
1.939000 -0.157321
1.940000 -0.164395
1.941000 -0.163527
1.942000 -0.156461
1.943000 -0.181616
1.944000 -0.148902
1.945000 -0.151455
1.946000 -0.160217
1.947000 -0.161382
1.948000 -0.128567
1.949000 -0.126283
1.950000 -0.163680
1.951000 -0.177798
1.952000 -0.191314
1.953000 -0.187154
1.954000 -0.206686
1.955000 -0.194247
1.956000 -0.172972
1.957000 -0.130561
1.958000 -0.139311
1.959000 -0.161135
1.960000 -0.169117
1.961000 -0.178169
1.962000 -0.157345
1.963000 -0.126980
1.964000 -0.149258
1.965000 -0.142040
1.966000 -0.136363
1.967000 -0.139889
1.968000 -0.159313
1.969000 -0.167169
1.970000 -0.190834
1.971000 -0.199922
1.972000 -0.178925
1.973000 -0.217639
1.974000 -0.228109
1.975000 -0.233108
1.976000 -0.218322
1.977000 -0.209624
1.978000 -0.210187
1.979000 -0.171759
1.980000 -0.145574
1.981000 -0.119720
1.982000 -0.153250
1.983000 -0.151752
1.984000 -0.161079
1.985000 -0.165497
1.986000 -0.189819
1.987000 -0.168922
1.988000 -0.178004
1.989000 -0.195205
1.990000 -0.191101
1.991000 -0.195727
1.992000 -0.199205
1.993000 -0.215980
1.994000 -0.201637
1.995000 -0.192226
1.996000 -0.191221
1.997000 -0.194404
1.998000 -0.181613
1.999000 -0.167344
2.000000 -0.198411
2.001000 -0.196190
2.002000 -0.184772
2.003000 -0.164174
2.004000 -0.163832
2.005000 -0.198570
2.006000 -0.172355
2.007000 -0.169089
2.008000 -0.167147
2.009000 -0.190400
2.010000 -0.171115
2.011000 -0.158791
2.012000 -0.177124
2.013000 -0.175922
2.014000 -0.190261
2.015000 -0.178490
2.016000 -0.186559
2.017000 -0.183922
2.018000 -0.196256
2.019000 -0.199715
2.020000 -0.184667
2.021000 -0.187445
2.022000 -0.199190
2.023000 -0.181188
2.024000 -0.199487
2.025000 -0.191598
2.026000 -0.178329
2.027000 -0.183175
2.028000 -0.191937
2.029000 -0.185044
2.030000 -0.169116
2.031000 -0.186039
2.032000 -0.167531
2.033000 -0.176257
2.034000 -0.172727
2.035000 -0.181856
2.036000 -0.186708
2.037000 -0.213582
2.038000 -0.208014
2.039000 -0.179191
2.040000 -0.168988
2.041000 -0.177939
2.042000 -0.169610
2.043000 -0.197192
2.044000 -0.173013
2.045000 -0.158731
2.046000 -0.177577
2.047000 -0.187792
2.048000 -0.175560
2.049000 -0.192027
2.050000 -0.167409
2.051000 -0.177502
2.052000 -0.174350
2.053000 -0.144381
2.054000 -0.184654
2.055000 -0.196560
2.056000 -0.173940
2.057000 -0.168610
2.058000 -0.172722
2.059000 -0.168911
2.060000 -0.162044
2.061000 -0.183687
2.062000 -0.171935
2.063000 -0.159803
2.064000 -0.172910
2.065000 -0.169954
2.066000 -0.155689
2.067000 -0.165803
2.068000 -0.172687
2.069000 -0.144979
2.070000 -0.144977
2.071000 -0.171601
2.072000 -0.179363
2.073000 -0.151459
2.074000 -0.149682
2.075000 -0.152853
2.076000 -0.160858
2.077000 -0.156410
2.078000 -0.142396
2.079000 -0.129609
2.080000 -0.152635
2.081000 -0.151682
2.082000 -0.151386
2.083000 -0.119774
2.084000 -0.145432
2.085000 -0.118450
2.086000 -0.132741
2.087000 -0.131005
2.088000 -0.138437
2.089000 -0.133945
2.090000 -0.122061
2.091000 -0.130457
2.092000 -0.118572
2.093000 -0.118338
2.094000 -0.152630
2.095000 -0.150196
2.096000 -0.137791
2.097000 -0.141899
2.098000 -0.160910
2.099000 -0.142983
2.100000 -0.132731
2.101000 -0.113589
2.102000 -0.095833
2.103000 -0.106743
2.104000 -0.104472
2.105000 -0.106410
2.106000 -0.084080
2.107000 -0.083981
2.108000 -0.095137
2.109000 -0.109667
2.110000 -0.107313
2.111000 -0.130466
2.112000 -0.144096
2.113000 -0.145059
2.114000 -0.128496
2.115000 -0.149879
2.116000 -0.170141
2.117000 -0.155113
2.118000 -0.129824
2.119000 -0.163496
2.120000 -0.158072
2.121000 -0.164668
2.122000 -0.134913
2.123000 -0.107345
2.124000 -0.099458
2.125000 -0.111669
2.126000 -0.119288
2.127000 -0.106972
2.128000 -0.088645
2.129000 -0.129137
2.130000 -0.143196
2.131000 -0.155006
2.132000 -0.160423
2.133000 -0.117119
2.134000 -0.165373
2.135000 -0.150143
2.136000 -0.130844
2.137000 -0.129709
2.138000 -0.138181
2.139000 -0.154727
2.140000 -0.154269
2.141000 -0.164551
2.142000 -0.136342
2.143000 -0.137561
2.144000 -0.129000
2.145000 -0.135413
2.146000 -0.153883
2.147000 -0.150170
2.148000 -0.135914
2.149000 -0.163636
2.150000 -0.148489
2.151000 -0.143123
2.152000 -0.157114
2.153000 -0.146410
2.154000 -0.145174
2.155000 -0.161645
2.156000 -0.173439
2.157000 -0.148737
2.158000 -0.160149
2.159000 -0.159696
2.160000 -0.147525
2.161000 -0.154082
2.162000 -0.153574
2.163000 -0.127478
2.164000 -0.136331
2.165000 -0.139130
2.166000 -0.157864
2.167000 -0.172627
2.168000 -0.186957
2.169000 -0.188366
2.170000 -0.214820
2.171000 -0.220374
2.172000 -0.209081
2.173000 -0.176677
2.174000 -0.159522
2.175000 -0.156495
2.176000 -0.122979
2.177000 -0.174542
2.178000 -0.155297
2.179000 -0.176991
2.180000 -0.155532
2.181000 -0.158849
2.182000 -0.145305
2.183000 -0.155627
2.184000 -0.158207
2.185000 -0.139539
2.186000 -0.158797
2.187000 -0.172436
2.188000 -0.180742
2.189000 -0.175358
2.190000 -0.174215
2.191000 -0.218074
2.192000 -0.203828
2.193000 -0.215498
2.194000 -0.195266
2.195000 -0.181274
2.196000 -0.191529
2.197000 -0.149223
2.198000 -0.145267
2.199000 -0.152212
2.200000 -0.151215
2.201000 -0.161183
2.202000 -0.154236
2.203000 -0.134151
2.204000 -0.136591
2.205000 -0.158649
2.206000 -0.157932
2.207000 -0.162538
2.208000 -0.162663
2.209000 -0.159982
2.210000 -0.162621
2.211000 -0.164626
2.212000 -0.158370
2.213000 -0.175675
2.214000 -0.185043
2.215000 -0.184626
2.216000 -0.181474
2.217000 -0.171698
2.218000 -0.162523
2.219000 -0.167442
2.220000 -0.165225
2.221000 -0.162253
2.222000 -0.161557
2.223000 -0.152726
2.224000 -0.163533
2.225000 -0.162084
2.226000 -0.176767
2.227000 -0.154541
2.228000 -0.163544
2.229000 -0.161909
2.230000 -0.172761
2.231000 -0.168847
2.232000 -0.191628
2.233000 -0.171070
2.234000 -0.180663
2.235000 -0.176898
2.236000 -0.212528
2.237000 -0.236827
2.238000 -0.254843
2.239000 -0.243827
2.240000 -0.235957
2.241000 -0.240378
2.242000 -0.244215
2.243000 -0.209126
2.244000 -0.201245
2.245000 -0.203012
2.246000 -0.183001
2.247000 -0.202280
2.248000 -0.180935
2.249000 -0.175291
2.250000 -0.142941
2.251000 -0.132913
2.252000 -0.112171
2.253000 -0.115463
2.254000 -0.105101
2.255000 -0.125367
2.256000 -0.111986
2.257000 -0.117683
2.258000 -0.092685
2.259000 -0.078938
2.260000 -0.040666
2.261000 0.004291
2.262000 0.012032
2.263000 0.049113
2.264000 0.081334
2.265000 0.099596
2.266000 0.123427
2.267000 0.143926
2.268000 0.164628
2.269000 0.208182
2.270000 0.274688
2.271000 0.294030
2.272000 0.278975
2.273000 0.223076
2.274000 0.218250
2.275000 0.179818
2.276000 0.182121
2.277000 0.133156
2.278000 0.110940
2.279000 0.074635
2.280000 0.039287
2.281000 -0.000605
2.282000 -0.039869
2.283000 -0.077245
2.284000 -0.064128
2.285000 -0.053257
2.286000 -0.100742
2.287000 -0.102694
2.288000 -0.120550
2.289000 -0.167459
2.290000 -0.168217
2.291000 -0.180543
2.292000 -0.198444
2.293000 -0.216665
2.294000 -0.229245
2.295000 -0.231276
2.296000 -0.230251
2.297000 -0.226481
2.298000 -0.202743
2.299000 -0.213930
2.300000 -0.207860
2.301000 -0.185721
2.302000 -0.167757
2.303000 -0.154796
2.304000 -0.147303
2.305000 -0.142473
2.306000 -0.146279
2.307000 -0.165173
2.308000 -0.141874
2.309000 -0.141643
2.310000 -0.142076
2.311000 -0.151916
2.312000 -0.145283
2.313000 -0.159159
2.314000 -0.180740
2.315000 -0.157364
2.316000 -0.160532
2.317000 -0.163850
2.318000 -0.155090
2.319000 -0.135156
2.320000 -0.163713
2.321000 -0.183157
2.322000 -0.157740
2.323000 -0.158342
2.324000 -0.148308
2.325000 -0.168482
2.326000 -0.145367
2.327000 -0.151164
2.328000 -0.151438
2.329000 -0.154573
2.330000 -0.173202
2.331000 -0.139150
2.332000 -0.155283
2.333000 -0.168525
2.334000 -0.166716
2.335000 -0.157092
2.336000 -0.188545
2.337000 -0.164104
2.338000 -0.190329
2.339000 -0.157789
2.340000 -0.167644
2.341000 -0.180427
2.342000 -0.165477
2.343000 -0.148547
2.344000 -0.092553
2.345000 -0.141897
2.346000 -0.151071
2.347000 -0.138494
2.348000 -0.149063
2.349000 -0.153984
2.350000 -0.149169
2.351000 -0.163604
2.352000 -0.157932
2.353000 -0.129271
2.354000 -0.133639
2.355000 -0.157462
2.356000 -0.148444
2.357000 -0.166334
2.358000 -0.146641
2.359000 -0.161304
2.360000 -0.146032
2.361000 -0.151340
2.362000 -0.154268
2.363000 -0.170746
2.364000 -0.132004
2.365000 -0.129172
2.366000 -0.146933
2.367000 -0.143409
2.368000 -0.146347
2.369000 -0.157187
2.370000 -0.145624
2.371000 -0.137602
2.372000 -0.158588
2.373000 -0.172823
2.374000 -0.174031
2.375000 -0.199578
2.376000 -0.174700
2.377000 -0.191469
2.378000 -0.173369
2.379000 -0.140596
2.380000 -0.152993
2.381000 -0.163329
2.382000 -0.138677
2.383000 -0.136589
2.384000 -0.148539
2.385000 -0.111942
2.386000 -0.131783
2.387000 -0.131733
2.388000 -0.141681
2.389000 -0.146460
2.390000 -0.152317
2.391000 -0.164191
2.392000 -0.147203
2.393000 -0.164283
2.394000 -0.151886
2.395000 -0.142568
2.396000 -0.141573
2.397000 -0.138038
2.398000 -0.138106
2.399000 -0.137763
2.400000 -0.141951
2.401000 -0.147462
2.402000 -0.153348
2.403000 -0.146611
2.404000 -0.142474
2.405000 -0.151805
2.406000 -0.151718
2.407000 -0.155011
2.408000 -0.148426
2.409000 -0.151681
2.410000 -0.149548
2.411000 -0.144954
2.412000 -0.157290
2.413000 -0.175848
2.414000 -0.174520
2.415000 -0.172305
2.416000 -0.151392
2.417000 -0.147917
2.418000 -0.153751
2.419000 -0.122545
2.420000 -0.133260
2.421000 -0.135121
2.422000 -0.128154
2.423000 -0.118660
2.424000 -0.163018
2.425000 -0.146768
2.426000 -0.149595
2.427000 -0.152052
2.428000 -0.139818
2.429000 -0.134514
2.430000 -0.129309
2.431000 -0.124834
2.432000 -0.128663
2.433000 -0.141908
2.434000 -0.148797
2.435000 -0.136587
2.436000 -0.145318
2.437000 -0.135960
2.438000 -0.136536
2.439000 -0.144141
2.440000 -0.136692
2.441000 -0.133091
2.442000 -0.118754
2.443000 -0.145646
2.444000 -0.140718
2.445000 -0.138712
2.446000 -0.149307
2.447000 -0.146839
2.448000 -0.138893
2.449000 -0.144364
2.450000 -0.130568
2.451000 -0.151209
2.452000 -0.154138
2.453000 -0.140831
2.454000 -0.155712
2.455000 -0.174723
2.456000 -0.150001
2.457000 -0.134831
2.458000 -0.149134
2.459000 -0.141307
2.460000 -0.141654
2.461000 -0.134422
2.462000 -0.135042
2.463000 -0.146294
2.464000 -0.124028
2.465000 -0.142674
2.466000 -0.142249
2.467000 -0.142627
2.468000 -0.122695
2.469000 -0.109965
2.470000 -0.120645
2.471000 -0.136837
2.472000 -0.119597
2.473000 -0.120458
2.474000 -0.137013
2.475000 -0.149137
2.476000 -0.135126
2.477000 -0.140718
2.478000 -0.129969
2.479000 -0.129374
2.480000 -0.146975
2.481000 -0.106166
2.482000 -0.121986
2.483000 -0.126205
2.484000 -0.099193
2.485000 -0.102489
2.486000 -0.112325
2.487000 -0.135393
2.488000 -0.111568
2.489000 -0.124417
2.490000 -0.112128
2.491000 -0.122185
2.492000 -0.123021
2.493000 -0.118720
2.494000 -0.123640
2.495000 -0.129064
2.496000 -0.115625
2.497000 -0.146296
2.498000 -0.123444
2.499000 -0.108284
2.500000 -0.112638
2.501000 -0.104861
2.502000 -0.114848
2.503000 -0.102228
2.504000 -0.104994
2.505000 -0.096698
2.506000 -0.096438
2.507000 -0.092211
2.508000 -0.074916
2.509000 -0.103702
2.510000 -0.111978
2.511000 -0.106103
2.512000 -0.090233
2.513000 -0.117940
2.514000 -0.138323
2.515000 -0.108983
2.516000 -0.133595
2.517000 -0.117643
2.518000 -0.115121
2.519000 -0.123326
2.520000 -0.103349
2.521000 -0.092303
2.522000 -0.107199
2.523000 -0.088857
2.524000 -0.101702
2.525000 -0.110594
2.526000 -0.113124
2.527000 -0.102120
2.528000 -0.118156
2.529000 -0.116955
2.530000 -0.099306
2.531000 -0.116215
2.532000 -0.119400
2.533000 -0.136156
2.534000 -0.120543
2.535000 -0.125130
2.536000 -0.129666
2.537000 -0.138661
2.538000 -0.127255
2.539000 -0.142818
2.540000 -0.136790
2.541000 -0.124371
2.542000 -0.135204
2.543000 -0.136559
2.544000 -0.135564
2.545000 -0.136949
2.546000 -0.143234
2.547000 -0.131303
2.548000 -0.145946
2.549000 -0.137162
2.550000 -0.130605
2.551000 -0.119718
2.552000 -0.135680
2.553000 -0.136824
2.554000 -0.125328
2.555000 -0.135293
2.556000 -0.143237
2.557000 -0.121364
2.558000 -0.136463
2.559000 -0.132811
2.560000 -0.135274
2.561000 -0.123594
2.562000 -0.132301
2.563000 -0.128585
2.564000 -0.128126
2.565000 -0.122179
2.566000 -0.133338
2.567000 -0.116995
2.568000 -0.130917
2.569000 -0.130901
2.570000 -0.137227
2.571000 -0.137856
2.572000 -0.135751
2.573000 -0.140112
2.574000 -0.134939
2.575000 -0.163061
2.576000 -0.148334
2.577000 -0.141332
2.578000 -0.153426
2.579000 -0.155256
2.580000 -0.146644
2.581000 -0.160681
2.582000 -0.143347
2.583000 -0.143802
2.584000 -0.134265
2.585000 -0.145925
2.586000 -0.136934
2.587000 -0.145591
2.588000 -0.151240
2.589000 -0.147674
2.590000 -0.133050
2.591000 -0.137305
2.592000 -0.138070
2.593000 -0.136474
2.594000 -0.119097
2.595000 -0.134003
2.596000 -0.149877
2.597000 -0.146553
2.598000 -0.145823
2.599000 -0.132552
2.600000 -0.116282
2.601000 -0.136200
2.602000 -0.111881
2.603000 -0.107097
2.604000 -0.107515
2.605000 -0.125587
2.606000 -0.109688
2.607000 -0.098765
2.608000 -0.116385
2.609000 -0.137123
2.610000 -0.141659
2.611000 -0.140224
2.612000 -0.154073
2.613000 -0.127857
2.614000 -0.148274
2.615000 -0.145307
2.616000 -0.151201
2.617000 -0.142565
2.618000 -0.148877
2.619000 -0.129107
2.620000 -0.134553
2.621000 -0.144173
2.622000 -0.126016
2.623000 -0.117953
2.624000 -0.125993
2.625000 -0.125649
2.626000 -0.124194
2.627000 -0.106322
2.628000 -0.128414
2.629000 -0.138476
2.630000 -0.135482
2.631000 -0.119904
2.632000 -0.122088
2.633000 -0.117874
2.634000 -0.119297
2.635000 -0.116896
2.636000 -0.098314
2.637000 -0.120567
2.638000 -0.120691
2.639000 -0.103587
2.640000 -0.129623
2.641000 -0.125660
2.642000 -0.122536
2.643000 -0.108833
2.644000 -0.104007
2.645000 -0.090056
2.646000 -0.117049
2.647000 -0.101086
2.648000 -0.113751
2.649000 -0.118867
2.650000 -0.120631
2.651000 -0.119753
2.652000 -0.129565
2.653000 -0.118536
2.654000 -0.117942
2.655000 -0.118094
2.656000 -0.114027
2.657000 -0.093882
2.658000 -0.107844
2.659000 -0.097925
2.660000 -0.086914
2.661000 -0.096225
2.662000 -0.065625
2.663000 -0.076247
2.664000 -0.087756
2.665000 -0.073922
2.666000 -0.077943
2.667000 -0.069410
2.668000 -0.080281
2.669000 -0.081762
2.670000 -0.078679
2.671000 -0.083456
2.672000 -0.095736
2.673000 -0.085374
2.674000 -0.079008
2.675000 -0.092542
2.676000 -0.105726
2.677000 -0.077509
2.678000 -0.087958
2.679000 -0.093131
2.680000 -0.088705
2.681000 -0.072989
2.682000 -0.087065
2.683000 -0.084297
2.684000 -0.088138
2.685000 -0.072566
2.686000 -0.074717
2.687000 -0.081156
2.688000 -0.085220
2.689000 -0.051810
2.690000 -0.056217
2.691000 -0.089483
2.692000 -0.091817
2.693000 -0.083437
2.694000 -0.068955
2.695000 -0.093560
2.696000 -0.095934
2.697000 -0.084667
2.698000 -0.082522
2.699000 -0.083640
2.700000 -0.097608
2.701000 -0.075913
2.702000 -0.083204
2.703000 -0.056532
2.704000 -0.070893
2.705000 -0.089254
2.706000 -0.073915
2.707000 -0.075565
2.708000 -0.104032
2.709000 -0.081002
2.710000 -0.095282
2.711000 -0.099795
2.712000 -0.103340
2.713000 -0.113491
2.714000 -0.122790
2.715000 -0.108943
2.716000 -0.106768
2.717000 -0.129692
2.718000 -0.110239
2.719000 -0.116573
2.720000 -0.122430
2.721000 -0.105073
2.722000 -0.109114
2.723000 -0.108591
2.724000 -0.109819
2.725000 -0.106082
2.726000 -0.119461
2.727000 -0.113491
2.728000 -0.108228
2.729000 -0.107518
2.730000 -0.101096
2.731000 -0.113344
2.732000 -0.098929
2.733000 -0.134849
2.734000 -0.137891
2.735000 -0.117906
2.736000 -0.129244
2.737000 -0.123700
2.738000 -0.123132
2.739000 -0.131223
2.740000 -0.126899
2.741000 -0.127780
2.742000 -0.120194
2.743000 -0.128152
2.744000 -0.121238
2.745000 -0.115159
2.746000 -0.126844
2.747000 -0.128023
2.748000 -0.115353
2.749000 -0.105747
2.750000 -0.110251
2.751000 -0.135361
2.752000 -0.136848
2.753000 -0.130116
2.754000 -0.143964
2.755000 -0.136495
2.756000 -0.142982
2.757000 -0.111353
2.758000 -0.149582
2.759000 -0.143331
2.760000 -0.126593
2.761000 -0.134710
2.762000 -0.124919
2.763000 -0.114359
2.764000 -0.122751
2.765000 -0.126364
2.766000 -0.109209
2.767000 -0.125503
2.768000 -0.123548
2.769000 -0.118223
2.770000 -0.131422
2.771000 -0.134808
2.772000 -0.137614
2.773000 -0.124058
2.774000 -0.141361
2.775000 -0.141063
2.776000 -0.108495
2.777000 -0.128997
2.778000 -0.141840
2.779000 -0.134332
2.780000 -0.127762
2.781000 -0.134100
2.782000 -0.117831
2.783000 -0.119164
2.784000 -0.115068
2.785000 -0.120679
2.786000 -0.122117
2.787000 -0.127867
2.788000 -0.138265
2.789000 -0.129270
2.790000 -0.140084
2.791000 -0.117886
2.792000 -0.147533
2.793000 -0.142606
2.794000 -0.139834
2.795000 -0.148551
2.796000 -0.140276
2.797000 -0.139720
2.798000 -0.135381
2.799000 -0.131038
2.800000 -0.116786
2.801000 -0.142939
2.802000 -0.128804
2.803000 -0.137115
2.804000 -0.130022
2.805000 -0.149377
2.806000 -0.137999
2.807000 -0.136633
2.808000 -0.143668
2.809000 -0.169273
2.810000 -0.175092
2.811000 -0.198311
2.812000 -0.208364
2.813000 -0.193150
2.814000 -0.203376
2.815000 -0.197371
2.816000 -0.206456
2.817000 -0.214688
2.818000 -0.172321
2.819000 -0.168672
2.820000 -0.158436
2.821000 -0.174423
2.822000 -0.150213
2.823000 -0.125292
2.824000 -0.119575
2.825000 -0.094215
2.826000 -0.084064
2.827000 -0.078976
2.828000 -0.067155
2.829000 -0.068990
2.830000 -0.044111
2.831000 -0.032687
2.832000 -0.029078
2.833000 -0.025119
2.834000 0.006013
2.835000 0.035356
2.836000 0.048572
2.837000 0.067431
2.838000 0.097942
2.839000 0.120419
2.840000 0.163072
2.841000 0.176136
2.842000 0.212011
2.843000 0.270530
2.844000 0.333841
2.845000 0.394668
2.846000 0.374839
2.847000 0.315435
2.848000 0.313646
2.849000 0.262850
2.850000 0.236570
2.851000 0.199314
2.852000 0.166956
2.853000 0.132366
2.854000 0.100023
2.855000 0.067021
2.856000 0.013195
2.857000 0.001265
2.858000 -0.035545
2.859000 -0.062006
2.860000 -0.079037
2.861000 -0.107125
2.862000 -0.111256
2.863000 -0.129591
2.864000 -0.158145
2.865000 -0.154431
2.866000 -0.151968
2.867000 -0.165330
2.868000 -0.156619
2.869000 -0.154868
2.870000 -0.147115
2.871000 -0.157668
2.872000 -0.156596
2.873000 -0.150507
2.874000 -0.155145
2.875000 -0.157948
2.876000 -0.154437
2.877000 -0.133973
2.878000 -0.130052
2.879000 -0.109636
2.880000 -0.118528
2.881000 -0.111842
2.882000 -0.115934
2.883000 -0.118168
2.884000 -0.097843
2.885000 -0.104825
2.886000 -0.111829
2.887000 -0.103087
2.888000 -0.114036
2.889000 -0.114548
2.890000 -0.119657
2.891000 -0.137193
2.892000 -0.122429
2.893000 -0.109810
2.894000 -0.128602
2.895000 -0.138948
2.896000 -0.121348
2.897000 -0.141843
2.898000 -0.132979
2.899000 -0.134722
2.900000 -0.130084
2.901000 -0.114489
2.902000 -0.115599
2.903000 -0.104996
2.904000 -0.119066
2.905000 -0.107718
2.906000 -0.109767
2.907000 -0.121771
2.908000 -0.111157
2.909000 -0.106556
2.910000 -0.130549
2.911000 -0.129080
2.912000 -0.132341
2.913000 -0.125215
2.914000 -0.128711
2.915000 -0.126961
2.916000 -0.125121
2.917000 -0.126290
2.918000 -0.127608
2.919000 -0.132709
2.920000 -0.127573
2.921000 -0.120392
2.922000 -0.102496
2.923000 -0.121981
2.924000 -0.118760
2.925000 -0.115850
2.926000 -0.113954
2.927000 -0.122645
2.928000 -0.124566
2.929000 -0.110085
2.930000 -0.137669
2.931000 -0.118192
2.932000 -0.124690
2.933000 -0.134544
2.934000 -0.133619
2.935000 -0.139230
2.936000 -0.117550
2.937000 -0.135198
2.938000 -0.134840
2.939000 -0.122227
2.940000 -0.117406
2.941000 -0.118632
2.942000 -0.112975
2.943000 -0.129847
2.944000 -0.120191
2.945000 -0.115519
2.946000 -0.112448
2.947000 -0.115609
2.948000 -0.116932
2.949000 -0.106187
2.950000 -0.116049
2.951000 -0.129437
2.952000 -0.116836
2.953000 -0.124495
2.954000 -0.146084
2.955000 -0.132502
2.956000 -0.136825
2.957000 -0.139498
2.958000 -0.131937
2.959000 -0.132407
2.960000 -0.134344
2.961000 -0.123568
2.962000 -0.111878
2.963000 -0.126383
2.964000 -0.121733
2.965000 -0.114523
2.966000 -0.113878
2.967000 -0.115192
2.968000 -0.110469
2.969000 -0.110313
2.970000 -0.133052
2.971000 -0.119688
2.972000 -0.114557
2.973000 -0.124345
2.974000 -0.135595
2.975000 -0.139478
2.976000 -0.145140
2.977000 -0.133064
2.978000 -0.124725
2.979000 -0.117180
2.980000 -0.127940
2.981000 -0.119458
2.982000 -0.123058
2.983000 -0.119461
2.984000 -0.124612
2.985000 -0.114945
2.986000 -0.106616
2.987000 -0.107211
2.988000 -0.113125
2.989000 -0.119343
2.990000 -0.118878
2.991000 -0.125021
2.992000 -0.126651
2.993000 -0.112942
2.994000 -0.121433
2.995000 -0.124152
2.996000 -0.116409
2.997000 -0.140252
2.998000 -0.131312
2.999000 -0.131733
3.000000 -0.114942
3.001000 -0.121916
3.002000 -0.129481
3.003000 -0.125508
3.004000 -0.131656
3.005000 -0.122026
3.006000 -0.119626
3.007000 -0.120794
3.008000 -0.113303
3.009000 -0.113468
3.010000 -0.116875
3.011000 -0.115147
3.012000 -0.113199
3.013000 -0.111078
3.014000 -0.111396
3.015000 -0.114411
3.016000 -0.114674
3.017000 -0.114294
3.018000 -0.117016
3.019000 -0.115510
3.020000 -0.112284
3.021000 -0.122946
3.022000 -0.115893
3.023000 -0.100990
3.024000 -0.113745
3.025000 -0.105294
3.026000 -0.098564
3.027000 -0.111171
3.028000 -0.103906
3.029000 -0.106411
3.030000 -0.119176
3.031000 -0.112617
3.032000 -0.112805
3.033000 -0.125250
3.034000 -0.102901
3.035000 -0.117938
3.036000 -0.111960
3.037000 -0.103445
3.038000 -0.105179
3.039000 -0.104525
3.040000 -0.096864
3.041000 -0.106461
3.042000 -0.100603
3.043000 -0.089663
3.044000 -0.089994
3.045000 -0.092665
3.046000 -0.094778
3.047000 -0.098145
3.048000 -0.077967
3.049000 -0.102694
3.050000 -0.094650
3.051000 -0.084347
3.052000 -0.098994
3.053000 -0.096305
3.054000 -0.099811
3.055000 -0.085637
3.056000 -0.103869
3.057000 -0.099496
3.058000 -0.091881
3.059000 -0.097555
3.060000 -0.086009
3.061000 -0.089478
3.062000 -0.091157
3.063000 -0.077579
3.064000 -0.071576
3.065000 -0.072502
3.066000 -0.092255
3.067000 -0.078282
3.068000 -0.072078
3.069000 -0.082461
3.070000 -0.083349
3.071000 -0.081681
3.072000 -0.084341
3.073000 -0.083373
3.074000 -0.092475
3.075000 -0.078597
3.076000 -0.083192
3.077000 -0.092678
3.078000 -0.076100
3.079000 -0.080518
3.080000 -0.078739
3.081000 -0.076479
3.082000 -0.070444
3.083000 -0.065720
3.084000 -0.068772
3.085000 -0.069788
3.086000 -0.075540
3.087000 -0.070439
3.088000 -0.066024
3.089000 -0.057642
3.090000 -0.073985
3.091000 -0.066346
3.092000 -0.071736
3.093000 -0.078493
3.094000 -0.087865
3.095000 -0.087346
3.096000 -0.091932
3.097000 -0.080149
3.098000 -0.077071
3.099000 -0.082065
3.100000 -0.093440
3.101000 -0.108408
3.102000 -0.084073
3.103000 -0.083274
3.104000 -0.085753
3.105000 -0.078710
3.106000 -0.078606
3.107000 -0.083529
3.108000 -0.079550
3.109000 -0.084090
3.110000 -0.085489
3.111000 -0.088407
3.112000 -0.098371
3.113000 -0.091233
3.114000 -0.094779
3.115000 -0.104785
3.116000 -0.102230
3.117000 -0.106136
3.118000 -0.109314
3.119000 -0.111388
3.120000 -0.103429
3.121000 -0.107414
3.122000 -0.102833
3.123000 -0.101662
3.124000 -0.097744
3.125000 -0.103989
3.126000 -0.100169
3.127000 -0.112763
3.128000 -0.101516
3.129000 -0.106129
3.130000 -0.110630
3.131000 -0.104094
3.132000 -0.108935
3.133000 -0.108127
3.134000 -0.110152
3.135000 -0.123149
3.136000 -0.121702
3.137000 -0.111704
3.138000 -0.102833
3.139000 -0.117510
3.140000 -0.118397
3.141000 -0.113667
3.142000 -0.098701
3.143000 -0.110764
3.144000 -0.125234
3.145000 -0.110942
3.146000 -0.093513
3.147000 -0.108327
3.148000 -0.098155
3.149000 -0.097425
3.150000 -0.106735
3.151000 -0.113535
3.152000 -0.112236
3.153000 -0.114504
3.154000 -0.117248
3.155000 -0.117994
3.156000 -0.129159
3.157000 -0.112674
3.158000 -0.130288
3.159000 -0.129096
3.160000 -0.111432
3.161000 -0.123918
3.162000 -0.107011
3.163000 -0.119430
3.164000 -0.105834
3.165000 -0.100802
3.166000 -0.106863
3.167000 -0.117729
3.168000 -0.102766
3.169000 -0.106841
3.170000 -0.102523
3.171000 -0.102260
3.172000 -0.106739
3.173000 -0.114968
3.174000 -0.125831
3.175000 -0.113930
3.176000 -0.118993
3.177000 -0.119970
3.178000 -0.126402
3.179000 -0.115333
3.180000 -0.110981
3.181000 -0.111312
3.182000 -0.098108
3.183000 -0.098660
3.184000 -0.103263
3.185000 -0.093702
3.186000 -0.103471
3.187000 -0.100482
3.188000 -0.096136
3.189000 -0.092575
3.190000 -0.111938
3.191000 -0.106129
3.192000 -0.120005
3.193000 -0.115632
3.194000 -0.123344
3.195000 -0.115945
3.196000 -0.120737
3.197000 -0.128773
3.198000 -0.127888
3.199000 -0.118833
3.200000 -0.108517
3.201000 -0.124601
3.202000 -0.104001
3.203000 -0.100262
3.204000 -0.109021
3.205000 -0.100594
3.206000 -0.105178
3.207000 -0.105988
3.208000 -0.108269
3.209000 -0.100209
3.210000 -0.113975
3.211000 -0.102765
3.212000 -0.115769
3.213000 -0.118194
3.214000 -0.112295
3.215000 -0.119770
3.216000 -0.125488
3.217000 -0.109144
3.218000 -0.113709
3.219000 -0.119129
3.220000 -0.107659
3.221000 -0.107323
3.222000 -0.098565
3.223000 -0.092504
3.224000 -0.105664
3.225000 -0.108899
3.226000 -0.091878
3.227000 -0.101347
3.228000 -0.100415
3.229000 -0.098054
3.230000 -0.092427
3.231000 -0.092383
3.232000 -0.113395
3.233000 -0.110504
3.234000 -0.084565
3.235000 -0.080533
3.236000 -0.095645
3.237000 -0.093889
3.238000 -0.087937
3.239000 -0.099753
3.240000 -0.106034
3.241000 -0.084339
3.242000 -0.095278
3.243000 -0.089911
3.244000 -0.084445
3.245000 -0.087845
3.246000 -0.091712
3.247000 -0.077514
3.248000 -0.065981
3.249000 -0.085811
3.250000 -0.087098
3.251000 -0.083808
3.252000 -0.080052
3.253000 -0.081088
3.254000 -0.065685
3.255000 -0.073778
3.256000 -0.067330
3.257000 -0.078485
3.258000 -0.083858
3.259000 -0.071935
3.260000 -0.073715
3.261000 -0.073696
3.262000 -0.069686
3.263000 -0.081595
3.264000 -0.057414
3.265000 -0.060267
3.266000 -0.025730
3.267000 -0.051090
3.268000 -0.045690
3.269000 -0.044559
3.270000 -0.044457
3.271000 -0.030463
3.272000 -0.058190
3.273000 -0.040139
3.274000 -0.048861
3.275000 -0.046081
3.276000 -0.051658
3.277000 -0.053176
3.278000 -0.057028
3.279000 -0.053310
3.280000 -0.063164
3.281000 -0.052387
3.282000 -0.052495
3.283000 -0.055056
3.284000 -0.044168
3.285000 -0.048831
3.286000 -0.047943
3.287000 -0.051233
3.288000 -0.040924
3.289000 -0.042648
3.290000 -0.048348
3.291000 -0.062242
3.292000 -0.051785
3.293000 -0.055995
3.294000 -0.064990
3.295000 -0.067657
3.296000 -0.061707
3.297000 -0.073393
3.298000 -0.077461
3.299000 -0.064840
3.300000 -0.073022
3.301000 -0.066803
3.302000 -0.054579
3.303000 -0.054776
3.304000 -0.050568
3.305000 -0.047421
3.306000 -0.044765
3.307000 -0.052571
3.308000 -0.056220
3.309000 -0.058814
3.310000 -0.057609
3.311000 -0.069447
3.312000 -0.084439
3.313000 -0.070226
3.314000 -0.090919
3.315000 -0.094844
3.316000 -0.089207
3.317000 -0.096091
3.318000 -0.092717
3.319000 -0.091914
3.320000 -0.099694
3.321000 -0.088897
3.322000 -0.093697
3.323000 -0.104586
3.324000 -0.096863
3.325000 -0.095686
3.326000 -0.090174
3.327000 -0.102265
3.328000 -0.089738
3.329000 -0.099271
3.330000 -0.101218
3.331000 -0.108204
3.332000 -0.111774
3.333000 -0.096681
3.334000 -0.103112
3.335000 -0.126047
3.336000 -0.096306
3.337000 -0.105893
3.338000 -0.113947
3.339000 -0.102996
3.340000 -0.098324
3.341000 -0.094724
3.342000 -0.100181
3.343000 -0.099364
3.344000 -0.104944
3.345000 -0.094904
3.346000 -0.090182
3.347000 -0.097006
3.348000 -0.085673
3.349000 -0.110816
3.350000 -0.108343
3.351000 -0.113273
3.352000 -0.116356
3.353000 -0.108246
3.354000 -0.103505
3.355000 -0.111050
3.356000 -0.125447
3.357000 -0.119174
3.358000 -0.109292
3.359000 -0.103984
3.360000 -0.120088
3.361000 -0.107035
3.362000 -0.107101
3.363000 -0.109095
3.364000 -0.099288
3.365000 -0.101321
3.366000 -0.084158
3.367000 -0.095977
3.368000 -0.094687
3.369000 -0.099553
3.370000 -0.108749
3.371000 -0.104048
3.372000 -0.098801
3.373000 -0.112248
3.374000 -0.101939
3.375000 -0.109185
3.376000 -0.119012
3.377000 -0.098365
3.378000 -0.095161
3.379000 -0.102683
3.380000 -0.097795
3.381000 -0.094053
3.382000 -0.102621
3.383000 -0.102577
3.384000 -0.107836
3.385000 -0.101235
3.386000 -0.093279
3.387000 -0.098816
3.388000 -0.110924
3.389000 -0.096119
3.390000 -0.100381
3.391000 -0.103759
3.392000 -0.115992
3.393000 -0.103728
3.394000 -0.106226
3.395000 -0.110232
3.396000 -0.123274
3.397000 -0.102150
3.398000 -0.089975
3.399000 -0.102284
3.400000 -0.109252
3.401000 -0.099696
3.402000 -0.098807
3.403000 -0.094091
3.404000 -0.089649
3.405000 -0.091125
3.406000 -0.094986
3.407000 -0.093308
3.408000 -0.098023
3.409000 -0.107802
3.410000 -0.120627
3.411000 -0.128802
3.412000 -0.141395
3.413000 -0.147718
3.414000 -0.166164
3.415000 -0.164747
3.416000 -0.161794
3.417000 -0.170033
3.418000 -0.161743
3.419000 -0.161439
3.420000 -0.146412
3.421000 -0.141852
3.422000 -0.124889
3.423000 -0.134092
3.424000 -0.112710
3.425000 -0.099919
3.426000 -0.082466
3.427000 -0.083422
3.428000 -0.065209
3.429000 -0.054198
3.430000 -0.049493
3.431000 -0.045853
3.432000 -0.024589
3.433000 -0.029916
3.434000 -0.024371
3.435000 -0.007851
3.436000 0.012483
3.437000 0.030168
3.438000 0.056442
3.439000 0.071737
3.440000 0.103988
3.441000 0.134900
3.442000 0.147306
3.443000 0.189017
3.444000 0.221139
3.445000 0.245429
3.446000 0.302348
3.447000 0.370902
3.448000 0.380920
3.449000 0.367829
3.450000 0.320788
3.451000 0.290920
3.452000 0.269017
3.453000 0.224198
3.454000 0.188226
3.455000 0.160424
3.456000 0.145143
3.457000 0.099933
3.458000 0.062829
3.459000 0.026682
3.460000 0.005753
3.461000 -0.007622
3.462000 -0.034412
3.463000 -0.048656
3.464000 -0.070722
3.465000 -0.086030
3.466000 -0.100754
3.467000 -0.108159
3.468000 -0.114724
3.469000 -0.119818
3.470000 -0.126297
3.471000 -0.120631
3.472000 -0.118750
3.473000 -0.123061
3.474000 -0.110241
3.475000 -0.106569
3.476000 -0.110147
3.477000 -0.105034
3.478000 -0.095406
3.479000 -0.102167
3.480000 -0.085158
3.481000 -0.080255
3.482000 -0.080582
3.483000 -0.078363
3.484000 -0.077136
3.485000 -0.071937
3.486000 -0.070914
3.487000 -0.063789
3.488000 -0.071690
3.489000 -0.074906
3.490000 -0.084992
3.491000 -0.080214
3.492000 -0.088445
3.493000 -0.089543
3.494000 -0.080112
3.495000 -0.075556
3.496000 -0.080030
3.497000 -0.084041
3.498000 -0.078896
3.499000 -0.074620
3.500000 -0.072674
3.501000 -0.089997
3.502000 -0.088629
3.503000 -0.078322
3.504000 -0.078278
3.505000 -0.077872
3.506000 -0.077613
3.507000 -0.074003
3.508000 -0.074084
3.509000 -0.087017
3.510000 -0.089159
3.511000 -0.087410
3.512000 -0.088483
3.513000 -0.086924
3.514000 -0.089713
3.515000 -0.091542
3.516000 -0.099786
3.517000 -0.108126
3.518000 -0.074571
3.519000 -0.083986
3.520000 -0.081175
3.521000 -0.086373
3.522000 -0.089861
3.523000 -0.075147
3.524000 -0.075913
3.525000 -0.071694
3.526000 -0.080981
3.527000 -0.071076
3.528000 -0.067203
3.529000 -0.080261
3.530000 -0.079971
3.531000 -0.091249
3.532000 -0.079781
3.533000 -0.082167
3.534000 -0.075471
3.535000 -0.095244
3.536000 -0.086849
3.537000 -0.083451
3.538000 -0.081667
3.539000 -0.079869
3.540000 -0.077964
3.541000 -0.092193
3.542000 -0.070621
3.543000 -0.076140
3.544000 -0.066692
3.545000 -0.062577
3.546000 -0.072505
3.547000 -0.067770
3.548000 -0.069610
3.549000 -0.064765
3.550000 -0.070821
3.551000 -0.066849
3.552000 -0.072936
3.553000 -0.071895
3.554000 -0.086608
3.555000 -0.081189
3.556000 -0.084358
3.557000 -0.077011
3.558000 -0.073096
3.559000 -0.077159
3.560000 -0.072932
3.561000 -0.067236
3.562000 -0.078164
3.563000 -0.076895
3.564000 -0.068465
3.565000 -0.070333
3.566000 -0.062225
3.567000 -0.079264
3.568000 -0.066789
3.569000 -0.065919
3.570000 -0.083923
3.571000 -0.073519
3.572000 -0.081995
3.573000 -0.075116
3.574000 -0.086101
3.575000 -0.079783
3.576000 -0.083816
3.577000 -0.069419
3.578000 -0.089963
3.579000 -0.084682
3.580000 -0.072497
3.581000 -0.075964
3.582000 -0.072326
3.583000 -0.070915
3.584000 -0.058995
3.585000 -0.078402
3.586000 -0.060550
3.587000 -0.070452
3.588000 -0.065411
3.589000 -0.067566
3.590000 -0.071122
3.591000 -0.069864
3.592000 -0.072673
3.593000 -0.066941
3.594000 -0.081159
3.595000 -0.083559
3.596000 -0.080487
3.597000 -0.067226
3.598000 -0.073510
3.599000 -0.076411
3.600000 -0.068069
3.601000 -0.070309
3.602000 -0.063832
3.603000 -0.067772
3.604000 -0.066041
3.605000 -0.056591
3.606000 -0.066182
3.607000 -0.052210
3.608000 -0.061921
3.609000 -0.061130
3.610000 -0.068058
3.611000 -0.074040
3.612000 -0.080490
3.613000 -0.070754
3.614000 -0.075357
3.615000 -0.076978
3.616000 -0.073823
3.617000 -0.073296
3.618000 -0.061757
3.619000 -0.075040
3.620000 -0.066494
3.621000 -0.063684
3.622000 -0.062520
3.623000 -0.070307
3.624000 -0.055621
3.625000 -0.063071
3.626000 -0.058497
3.627000 -0.047568
3.628000 -0.066512
3.629000 -0.062933
3.630000 -0.056716
3.631000 -0.055562
3.632000 -0.071230
3.633000 -0.051547
3.634000 -0.053746
3.635000 -0.062960
3.636000 -0.064489
3.637000 -0.059716
3.638000 -0.059079
3.639000 -0.067492
3.640000 -0.062876
3.641000 -0.057612
3.642000 -0.056160
3.643000 -0.063353
3.644000 -0.051563
3.645000 -0.043830
3.646000 -0.042510
3.647000 -0.041571
3.648000 -0.053103
3.649000 -0.043306
3.650000 -0.046922
3.651000 -0.056367
3.652000 -0.062418
3.653000 -0.060924
3.654000 -0.038877
3.655000 -0.054116
3.656000 -0.065301
3.657000 -0.046497
3.658000 -0.046352
3.659000 -0.050348
3.660000 -0.050837
3.661000 -0.048832
3.662000 -0.036623
3.663000 -0.038991
3.664000 -0.027839
3.665000 -0.034983
3.666000 -0.034000
3.667000 -0.015084
3.668000 -0.018319
3.669000 -0.022674
3.670000 -0.023252
3.671000 -0.025475
3.672000 -0.031516
3.673000 -0.040841
3.674000 -0.038563
3.675000 -0.034885
3.676000 -0.046139
3.677000 -0.042006
3.678000 -0.044174
3.679000 -0.044101
3.680000 -0.041488
3.681000 -0.030241
3.682000 -0.020429
3.683000 -0.023177
3.684000 -0.015753
3.685000 -0.019036
3.686000 -0.011518
3.687000 -0.025709
3.688000 -0.010610
3.689000 -0.022040
3.690000 -0.008845
3.691000 -0.015511
3.692000 -0.036276
3.693000 -0.035083
3.694000 -0.046891
3.695000 -0.038435
3.696000 -0.030711
3.697000 -0.030866
3.698000 -0.039777
3.699000 -0.038930
3.700000 -0.041821
3.701000 -0.042921
3.702000 -0.027076
3.703000 -0.031979
3.704000 -0.025293
3.705000 -0.039648
3.706000 -0.030994
3.707000 -0.023956
3.708000 -0.030450
3.709000 -0.041763
3.710000 -0.027213
3.711000 -0.040240
3.712000 -0.040830
3.713000 -0.038084
3.714000 -0.040452
3.715000 -0.041019
3.716000 -0.047511
3.717000 -0.038983
3.718000 -0.048520
3.719000 -0.048661
3.720000 -0.057353
3.721000 -0.047326
3.722000 -0.046003
3.723000 -0.045597
3.724000 -0.048429
3.725000 -0.048760
3.726000 -0.045277
3.727000 -0.042440
3.728000 -0.053185
3.729000 -0.057919
3.730000 -0.044168
3.731000 -0.049710
3.732000 -0.063152
3.733000 -0.056605
3.734000 -0.062107
3.735000 -0.067938
3.736000 -0.056337
3.737000 -0.056597
3.738000 -0.062036
3.739000 -0.061816
3.740000 -0.048444
3.741000 -0.059356
3.742000 -0.055781
3.743000 -0.051739
3.744000 -0.049502
3.745000 -0.039017
3.746000 -0.041670
3.747000 -0.046584
3.748000 -0.047608
3.749000 -0.045335
3.750000 -0.054362
3.751000 -0.059302
3.752000 -0.062382
3.753000 -0.060652
3.754000 -0.052586
3.755000 -0.063688
3.756000 -0.063840
3.757000 -0.061008
3.758000 -0.063010
3.759000 -0.066826
3.760000 -0.054180
3.761000 -0.048977
3.762000 -0.048123
3.763000 -0.055055
3.764000 -0.060229
3.765000 -0.051133
3.766000 -0.045762
3.767000 -0.045038
3.768000 -0.046240
3.769000 -0.050246
3.770000 -0.059644
3.771000 -0.060531
3.772000 -0.055514
3.773000 -0.052967
3.774000 -0.055163
3.775000 -0.064018
3.776000 -0.065133
3.777000 -0.059378
3.778000 -0.063603
3.779000 -0.065314
3.780000 -0.059677
3.781000 -0.046975
3.782000 -0.058443
3.783000 -0.057111
3.784000 -0.059311
3.785000 -0.050058
3.786000 -0.046391
3.787000 -0.046995
3.788000 -0.041098
3.789000 -0.044638
3.790000 -0.068012
3.791000 -0.051946
3.792000 -0.052835
3.793000 -0.061279
3.794000 -0.068051
3.795000 -0.058897
3.796000 -0.055814
3.797000 -0.059278
3.798000 -0.055950
3.799000 -0.060900
3.800000 -0.054819
3.801000 -0.040578
3.802000 -0.062530
3.803000 -0.060528
3.804000 -0.041403
3.805000 -0.049584
3.806000 -0.045278
3.807000 -0.036691
3.808000 -0.052429
3.809000 -0.038787
3.810000 -0.046275
3.811000 -0.056177
3.812000 -0.053085
3.813000 -0.054656
3.814000 -0.063990
3.815000 -0.059591
3.816000 -0.063083
3.817000 -0.054103
3.818000 -0.047109
3.819000 -0.056039
3.820000 -0.049541
3.821000 -0.048260
3.822000 -0.052004
3.823000 -0.049221
3.824000 -0.050754
3.825000 -0.050090
3.826000 -0.042175
3.827000 -0.041465
3.828000 -0.051661
3.829000 -0.051579
3.830000 -0.052394
3.831000 -0.057422
3.832000 -0.048231
3.833000 -0.047881
3.834000 -0.053366
3.835000 -0.050356
3.836000 -0.050584
3.837000 -0.051729
3.838000 -0.059372
3.839000 -0.045662
3.840000 -0.044412
3.841000 -0.042018
3.842000 -0.048432
3.843000 -0.023915
3.844000 -0.031530
3.845000 -0.034217
3.846000 -0.031368
3.847000 -0.027550
3.848000 -0.027430
3.849000 -0.044306
3.850000 -0.039787
3.851000 -0.034717
3.852000 -0.037754
3.853000 -0.041091
3.854000 -0.038519
3.855000 -0.050683
3.856000 -0.054537
3.857000 -0.045269
3.858000 -0.046121
3.859000 -0.030980
3.860000 -0.047789
3.861000 -0.036540
3.862000 -0.049025
3.863000 -0.031206
3.864000 -0.030016
3.865000 -0.026880
3.866000 -0.034443
3.867000 -0.040894
3.868000 -0.016138
3.869000 -0.028900
3.870000 -0.036501
3.871000 -0.033141
3.872000 -0.031696
3.873000 -0.043825
3.874000 -0.028226
3.875000 -0.026400
3.876000 -0.046675
3.877000 -0.045561
3.878000 -0.041614
3.879000 -0.038639
3.880000 -0.043243
3.881000 -0.040836
3.882000 -0.034214
3.883000 -0.032796
3.884000 -0.034243
3.885000 -0.031538
3.886000 -0.031042
3.887000 -0.017782
3.888000 -0.032362
3.889000 -0.025522
3.890000 -0.013611
3.891000 -0.024547
3.892000 -0.026886
3.893000 -0.038474
3.894000 -0.032754
3.895000 -0.028674
3.896000 -0.035075
3.897000 -0.034835
3.898000 -0.030535
3.899000 -0.035572
3.900000 -0.039088
3.901000 -0.035410
3.902000 -0.024882
3.903000 -0.017735
3.904000 -0.023209
3.905000 -0.022014
3.906000 -0.027472
3.907000 -0.017380
3.908000 -0.027506
3.909000 -0.020262
3.910000 -0.033417
3.911000 -0.034244
3.912000 -0.032928
3.913000 -0.034566
3.914000 -0.043770
3.915000 -0.046268
3.916000 -0.038114
3.917000 -0.039521
3.918000 -0.046568
3.919000 -0.046165
3.920000 -0.030223
3.921000 -0.036766
3.922000 -0.041346
3.923000 -0.038233
3.924000 -0.027233
3.925000 -0.030419
3.926000 -0.025085
3.927000 -0.027226
3.928000 -0.007976
3.929000 -0.036400
3.930000 -0.033904
3.931000 -0.038591
3.932000 -0.021095
3.933000 -0.030022
3.934000 -0.031292
3.935000 -0.035663
3.936000 -0.042394
3.937000 -0.043341
3.938000 -0.056474
3.939000 -0.036981
3.940000 -0.039102
3.941000 -0.027057
3.942000 -0.031280
3.943000 -0.035871
3.944000 -0.033845
3.945000 -0.024572
3.946000 -0.018546
3.947000 -0.011996
3.948000 -0.015238
3.949000 -0.017263
3.950000 -0.018652
3.951000 -0.033221
3.952000 -0.026570
3.953000 -0.029600
3.954000 -0.020128
3.955000 -0.019976
3.956000 -0.027696
3.957000 -0.030273
3.958000 -0.021879
3.959000 -0.020024
3.960000 -0.024220
3.961000 -0.023393
3.962000 -0.026677
3.963000 -0.014316
3.964000 -0.013158
3.965000 -0.016019
3.966000 -0.006140
3.967000 -0.002793
3.968000 -0.008429
3.969000 -0.009805
3.970000 -0.001669
3.971000 -0.016120
3.972000 -0.011081
3.973000 -0.017537
3.974000 -0.019647
3.975000 -0.026702
3.976000 -0.028469
3.977000 -0.025114
3.978000 -0.022875
3.979000 -0.036444
3.980000 -0.038402
3.981000 -0.031499
3.982000 -0.021773
3.983000 -0.017686
3.984000 -0.019896
3.985000 -0.018297
3.986000 -0.012915
3.987000 -0.011904
3.988000 -0.009393
3.989000 -0.005581
3.990000 -0.003865
3.991000 -0.012234
3.992000 -0.019748
3.993000 -0.020573
3.994000 -0.033427
3.995000 -0.036574
3.996000 -0.037264
3.997000 -0.037773
3.998000 -0.046584
3.999000 -0.047375
4.000000 -0.045219
4.001000 -0.045026
4.002000 -0.043190
4.003000 -0.040141
4.004000 -0.032960
4.005000 -0.036042
4.006000 -0.037724
4.007000 -0.025414
4.008000 -0.026065
4.009000 -0.022493
4.010000 -0.015542
4.011000 -0.015900
4.012000 -0.031345
4.013000 -0.031201
4.014000 -0.026867
4.015000 -0.025818
4.016000 -0.041188
4.017000 -0.034362
4.018000 -0.032524
4.019000 -0.037451
4.020000 -0.035814
4.021000 -0.031230
4.022000 -0.028319
4.023000 -0.020949
4.024000 -0.024862
4.025000 -0.029134
4.026000 -0.020167
4.027000 -0.007747
4.028000 -0.019604
4.029000 -0.033132
4.030000 -0.026967
4.031000 -0.023105
4.032000 -0.017236
4.033000 -0.024720
4.034000 -0.032153
4.035000 -0.037036
4.036000 -0.030862
4.037000 -0.046086
4.038000 -0.044849
4.039000 -0.044974
4.040000 -0.032821
4.041000 -0.033826
4.042000 -0.030034
4.043000 -0.025965
4.044000 -0.033630
4.045000 -0.022958
4.046000 -0.019608
4.047000 -0.025359
4.048000 -0.025460
4.049000 -0.013482
4.050000 -0.033966
4.051000 -0.028012
4.052000 -0.035667
4.053000 -0.024581
4.054000 -0.022016
4.055000 -0.029435
4.056000 -0.033710
4.057000 -0.028508
4.058000 -0.040066
4.059000 -0.037981
4.060000 -0.029725
4.061000 -0.034562
4.062000 -0.032581
4.063000 -0.022894
4.064000 -0.025536
4.065000 -0.014331
4.066000 -0.021758
4.067000 -0.015138
4.068000 -0.019551
4.069000 -0.014515
4.070000 -0.023840
4.071000 -0.026750
4.072000 -0.021329
4.073000 -0.025012
4.074000 -0.025362
4.075000 -0.031867
4.076000 -0.030875
4.077000 -0.023835
4.078000 -0.023206
4.079000 -0.028732
4.080000 -0.038553
4.081000 -0.024810
4.082000 -0.022657
4.083000 -0.028844
4.084000 -0.007210
4.085000 -0.019777
4.086000 -0.009706
4.087000 -0.005938
4.088000 -0.015614
4.089000 -0.022442
4.090000 -0.005054
4.091000 -0.023812
4.092000 -0.012316
4.093000 -0.030920
4.094000 -0.019086
4.095000 -0.018555
4.096000 -0.014510
4.097000 -0.024775
4.098000 -0.023148
4.099000 -0.023589
4.100000 -0.025600
4.101000 -0.021392
4.102000 -0.023923
4.103000 -0.005919
4.104000 -0.014116
4.105000 -0.015063
4.106000 -0.013024
4.107000 -0.000769
4.108000 -0.011403
4.109000 -0.000742
4.110000 -0.007497
4.111000 -0.005789
4.112000 -0.008426
4.113000 -0.014238
4.114000 -0.021675
4.115000 -0.024930
4.116000 -0.028484
4.117000 -0.014992
4.118000 -0.026111
4.119000 -0.028638
4.120000 -0.019013
4.121000 -0.026247
4.122000 -0.028348
4.123000 -0.035367
4.124000 -0.048167
4.125000 -0.038087
4.126000 -0.042212
4.127000 -0.050946
4.128000 -0.055508
4.129000 -0.052960
4.130000 -0.055198
4.131000 -0.063542
4.132000 -0.067369
4.133000 -0.067084
4.134000 -0.048108
4.135000 -0.051756
4.136000 -0.053514
4.137000 -0.045368
4.138000 -0.036593
4.139000 -0.027018
4.140000 0.002815
4.141000 0.007602
4.142000 0.021558
4.143000 0.029501
4.144000 0.036918
4.145000 0.044493
4.146000 0.052417
4.147000 0.062439
4.148000 0.074408
4.149000 0.084816
4.150000 0.097785
4.151000 0.120090
4.152000 0.130964
4.153000 0.157704
4.154000 0.169336
4.155000 0.188033
4.156000 0.220151
4.157000 0.240511
4.158000 0.270408
4.159000 0.289529
4.160000 0.342206
4.161000 0.393569
4.162000 0.397115
4.163000 0.367378
4.164000 0.373710
4.165000 0.342537
4.166000 0.319177
4.167000 0.292158
4.168000 0.252944
4.169000 0.225338
4.170000 0.211885
4.171000 0.171376
4.172000 0.143349
4.173000 0.114977
4.174000 0.090231
4.175000 0.078953
4.176000 0.056777
4.177000 0.021592
4.178000 0.004319
4.179000 -0.012152
4.180000 -0.023839
4.181000 -0.035908
4.182000 -0.042962
4.183000 -0.040290
4.184000 -0.035291
4.185000 -0.030567
4.186000 -0.023052
4.187000 -0.026738
4.188000 -0.019906
4.189000 -0.016118
4.190000 -0.011782
4.191000 -0.009696
4.192000 -0.004179
4.193000 -0.004167
4.194000 -0.003291
4.195000 -0.014283
4.196000 -0.006017
4.197000 0.000557
4.198000 -0.001185
4.199000 -0.010950
4.200000 0.002250
4.201000 -0.000403
4.202000 0.010138
4.203000 0.017492
4.204000 0.013902
4.205000 0.014615
4.206000 0.013419
4.207000 0.026710
4.208000 0.015493
4.209000 0.019260
4.210000 0.005534
4.211000 0.012522
4.212000 0.012481
4.213000 0.000314
4.214000 0.003791
4.215000 0.006770
4.216000 -0.000610
4.217000 -0.008401
4.218000 0.006420
4.219000 0.002141
4.220000 0.005451
4.221000 0.002304
4.222000 0.002136
4.223000 0.001716
4.224000 0.006371
4.225000 0.010262
4.226000 0.015577
4.227000 0.013813
4.228000 0.017385
4.229000 0.009241
4.230000 0.017804
4.231000 0.021523
4.232000 0.014015
4.233000 -0.008218
4.234000 0.009917
4.235000 0.008570
4.236000 0.007211
4.237000 -0.005947
4.238000 -0.004321
4.239000 0.005594
4.240000 0.008402
4.241000 -0.001797
4.242000 0.003863
4.243000 0.011433
4.244000 0.005411
4.245000 0.009692
4.246000 0.011374
4.247000 0.012164
4.248000 0.013106
4.249000 0.009370
4.250000 0.007571
4.251000 0.011581
4.252000 0.001885
4.253000 0.005254
4.254000 0.004576
4.255000 -0.003124
4.256000 -0.012132
4.257000 -0.003171
4.258000 -0.004254
4.259000 -0.008807
4.260000 -0.006178
4.261000 0.003177
4.262000 0.010941
4.263000 0.011183
4.264000 0.005747
4.265000 0.022434
4.266000 0.015948
4.267000 0.009775
4.268000 0.001243
4.269000 0.016615
4.270000 0.020039
4.271000 0.014677
4.272000 0.000665
4.273000 0.012093
4.274000 0.003722
4.275000 0.003026
4.276000 -0.006655
4.277000 0.013645
4.278000 0.011613
4.279000 0.002107
4.280000 0.000984
4.281000 0.005586
4.282000 0.010617
4.283000 0.014149
4.284000 0.014314
4.285000 0.010045
4.286000 0.014822
4.287000 0.021045
4.288000 0.019667
4.289000 0.015025
4.290000 0.017026
4.291000 0.011234
4.292000 0.011739
4.293000 0.004764
4.294000 0.010786
4.295000 0.014664
4.296000 0.005836
4.297000 0.007683
4.298000 0.004238
4.299000 0.009055
4.300000 -0.001577
4.301000 0.011804
4.302000 0.005069
4.303000 0.001845
4.304000 0.016196
4.305000 0.016877
4.306000 0.017803
4.307000 0.022545
4.308000 0.026457
4.309000 0.021369
4.310000 0.018565
4.311000 0.023087
4.312000 0.015097
4.313000 0.021282
4.314000 0.018424
4.315000 0.013702
4.316000 0.006279
4.317000 0.012446
4.318000 0.000991
4.319000 0.010704
4.320000 0.014757
4.321000 0.010629
4.322000 0.006493
4.323000 0.012822
4.324000 0.009289
4.325000 0.034771
4.326000 0.036252
4.327000 0.021310
4.328000 0.025501
4.329000 0.030513
4.330000 0.019902
4.331000 0.023529
4.332000 0.026066
4.333000 0.013819
4.334000 0.032744
4.335000 0.012422
4.336000 0.006557
4.337000 0.019943
4.338000 0.018839
4.339000 0.010637
4.340000 0.009644
4.341000 0.013464
4.342000 0.011890
4.343000 0.030259
4.344000 0.025117
4.345000 0.029775
4.346000 0.036308
4.347000 0.033008
4.348000 0.029294
4.349000 0.042527
4.350000 0.037111
4.351000 0.036079
4.352000 0.029439
4.353000 0.021279
4.354000 0.018811
4.355000 0.037255
4.356000 0.033425
4.357000 0.025612
4.358000 0.029049
4.359000 0.031766
4.360000 0.027051
4.361000 0.024894
4.362000 0.033499
4.363000 0.037766
4.364000 0.048786
4.365000 0.041740
4.366000 0.044878
4.367000 0.047635
4.368000 0.053469
4.369000 0.046227
4.370000 0.065317
4.371000 0.055474
4.372000 0.044580
4.373000 0.050195
4.374000 0.048505
4.375000 0.044695
4.376000 0.037430
4.377000 0.044056
4.378000 0.046953
4.379000 0.054802
4.380000 0.053391
4.381000 0.056969
4.382000 0.063631
4.383000 0.055303
4.384000 0.061835
4.385000 0.058753
4.386000 0.070903
4.387000 0.064833
4.388000 0.066047
4.389000 0.070944
4.390000 0.061354
4.391000 0.059160
4.392000 0.052142
4.393000 0.055792
4.394000 0.064001
4.395000 0.058322
4.396000 0.057217
4.397000 0.059970
4.398000 0.056011
4.399000 0.046076
4.400000 0.058137
4.401000 0.069383
4.402000 0.071477
4.403000 0.062731
4.404000 0.066536
4.405000 0.067868
4.406000 0.073396
4.407000 0.068870
4.408000 0.063248
4.409000 0.080180
4.410000 0.071864
4.411000 0.058380
4.412000 0.062659
4.413000 0.065990
4.414000 0.064008
4.415000 0.057882
4.416000 0.065877
4.417000 0.059395
4.418000 0.054182
4.419000 0.048591
4.420000 0.062079
4.421000 0.062493
4.422000 0.050550
4.423000 0.043369
4.424000 0.048160
4.425000 0.054692
4.426000 0.057461
4.427000 0.059236
4.428000 0.058739
4.429000 0.038287
4.430000 0.043753
4.431000 0.046219
4.432000 0.064415
4.433000 0.051347
4.434000 0.046537
4.435000 0.045179
4.436000 0.035012
4.437000 0.031359
4.438000 0.032288
4.439000 0.044049
4.440000 0.036913
4.441000 0.028216
4.442000 0.029429
4.443000 0.034974
4.444000 0.038757
4.445000 0.038921
4.446000 0.044855
4.447000 0.039958
4.448000 0.053077
4.449000 0.041952
4.450000 0.041932
4.451000 0.050990
4.452000 0.038927
4.453000 0.031092
4.454000 0.033386
4.455000 0.030228
4.456000 0.025804
4.457000 0.029522
4.458000 0.030614
4.459000 0.015040
4.460000 0.029813
4.461000 0.025844
4.462000 0.027995
4.463000 0.031465
4.464000 0.039669
4.465000 0.034895
4.466000 0.035015
4.467000 0.037691
4.468000 0.036583
4.469000 0.045100
4.470000 0.038892
4.471000 0.028451
4.472000 0.031197
4.473000 0.022013
4.474000 0.021046
4.475000 0.019599
4.476000 0.026141
4.477000 0.020202
4.478000 0.022350
4.479000 0.017441
4.480000 0.026829
4.481000 0.022320
4.482000 0.025259
4.483000 0.027407
4.484000 0.030107
4.485000 0.036458
4.486000 0.028636
4.487000 0.029456
4.488000 0.032589
4.489000 0.036975
4.490000 0.034800
4.491000 0.030575
4.492000 0.023011
4.493000 0.024973
4.494000 0.018508
4.495000 0.023636
4.496000 0.034799
4.497000 0.025970
4.498000 0.022032
4.499000 0.026905
4.500000 0.020308
4.501000 0.025693
4.502000 0.027096
4.503000 0.023642
4.504000 0.022403
4.505000 0.025782
4.506000 0.033158
4.507000 0.030693
4.508000 0.042898
4.509000 0.023036
4.510000 0.034017
4.511000 0.028145
4.512000 0.022780
4.513000 0.027943
4.514000 0.024383
4.515000 0.028179
4.516000 0.027020
4.517000 0.019783
4.518000 0.020333
4.519000 0.030182
4.520000 0.022249
4.521000 0.026011
4.522000 0.031115
4.523000 0.025199
4.524000 0.023489
4.525000 0.034527
4.526000 0.037223
4.527000 0.047655
4.528000 0.039694
4.529000 0.045121
4.530000 0.047298
4.531000 0.036559
4.532000 0.034870
4.533000 0.042568
4.534000 0.031745
4.535000 0.035605
4.536000 0.038497
4.537000 0.029492
4.538000 0.038997
4.539000 0.017182
4.540000 0.021904
4.541000 0.033435
4.542000 0.025170
4.543000 0.036994
4.544000 0.037025
4.545000 0.047322
4.546000 0.041640
4.547000 0.051500
4.548000 0.049102
4.549000 0.041707
4.550000 0.046542
4.551000 0.052755
4.552000 0.047079
4.553000 0.031375
4.554000 0.034721
4.555000 0.029105
4.556000 0.037216
4.557000 0.029111
4.558000 0.032562
4.559000 0.033441
4.560000 0.033297
4.561000 0.022120
4.562000 0.028560
4.563000 0.039453
4.564000 0.044499
4.565000 0.043535
4.566000 0.042682
4.567000 0.041712
4.568000 0.047851
4.569000 0.043272
4.570000 0.038351
4.571000 0.042330
4.572000 0.032343
4.573000 0.035231
4.574000 0.033549
4.575000 0.036861
4.576000 0.038520
4.577000 0.032993
4.578000 0.034673
4.579000 0.043813
4.580000 0.044001
4.581000 0.029773
4.582000 0.041113
4.583000 0.044367
4.584000 0.047682
4.585000 0.041492
4.586000 0.054378
4.587000 0.054716
4.588000 0.055628
4.589000 0.055369
4.590000 0.049084
4.591000 0.044661
4.592000 0.038216
4.593000 0.034052
4.594000 0.044623
4.595000 0.046288
4.596000 0.035020
4.597000 0.037868
4.598000 0.043512
4.599000 0.035193
4.600000 0.038148
4.601000 0.038573
4.602000 0.046674
4.603000 0.038651
4.604000 0.038905
4.605000 0.050150
4.606000 0.041202
4.607000 0.041249
4.608000 0.059490
4.609000 0.062765
4.610000 0.069145
4.611000 0.048533
4.612000 0.038247
4.613000 0.046881
4.614000 0.050131
4.615000 0.041854
4.616000 0.039616
4.617000 0.034233
4.618000 0.033400
4.619000 0.040534
4.620000 0.034153
4.621000 0.043651
4.622000 0.043836
4.623000 0.051541
4.624000 0.052318
4.625000 0.056478
4.626000 0.050768
4.627000 0.055471
4.628000 0.062000
4.629000 0.045196
4.630000 0.049225
4.631000 0.043973
4.632000 0.051382
4.633000 0.059486
4.634000 0.051596
4.635000 0.041396
4.636000 0.043764
4.637000 0.048606
4.638000 0.040608
4.639000 0.042011
4.640000 0.049471
4.641000 0.045841
4.642000 0.047411
4.643000 0.041857
4.644000 0.043363
4.645000 0.062551
4.646000 0.053403
4.647000 0.051644
4.648000 0.055675
4.649000 0.053731
4.650000 0.049338
4.651000 0.055742
4.652000 0.054544
4.653000 0.056649
4.654000 0.038446
4.655000 0.040799
4.656000 0.039034
4.657000 0.044775
4.658000 0.048598
4.659000 0.038546
4.660000 0.043529
4.661000 0.039058
4.662000 0.051085
4.663000 0.049336
4.664000 0.047354
4.665000 0.046912
4.666000 0.057941
4.667000 0.071089
4.668000 0.051814
4.669000 0.066477
4.670000 0.067411
4.671000 0.078500
4.672000 0.082796
4.673000 0.069917
4.674000 0.065069
4.675000 0.073797
4.676000 0.070016
4.677000 0.058068
4.678000 0.066199
4.679000 0.067312
4.680000 0.074519
4.681000 0.068306
4.682000 0.083908
4.683000 0.082800
4.684000 0.082138
4.685000 0.072431
4.686000 0.061253
4.687000 0.074056
4.688000 0.071184
4.689000 0.065690
4.690000 0.073335
4.691000 0.063993
4.692000 0.066999
4.693000 0.062238
4.694000 0.054438
4.695000 0.068264
4.696000 0.057067
4.697000 0.052338
4.698000 0.049090
4.699000 0.068915
4.700000 0.057916
4.701000 0.061893
4.702000 0.070872
4.703000 0.077197
4.704000 0.066329
4.705000 0.063056
4.706000 0.061625
4.707000 0.058385
4.708000 0.065214
4.709000 0.050556
4.710000 0.062224
4.711000 0.053106
4.712000 0.046202
4.713000 0.040027
4.714000 0.028439
4.715000 0.026948
4.716000 0.034005
4.717000 0.036479
4.718000 0.044521
4.719000 0.039133
4.720000 0.031322
4.721000 0.050777
4.722000 0.056799
4.723000 0.050825
4.724000 0.050156
4.725000 0.065249
4.726000 0.062912
4.727000 0.054808
4.728000 0.055942
4.729000 0.066142
4.730000 0.059023
4.731000 0.047788
4.732000 0.050035
4.733000 0.048347
4.734000 0.053188
4.735000 0.053874
4.736000 0.034131
4.737000 0.039008
4.738000 0.038479
4.739000 0.041801
4.740000 0.056653
4.741000 0.063014
4.742000 0.054641
4.743000 0.044682
4.744000 0.039444
4.745000 0.047416
4.746000 0.046549
4.747000 0.053430
4.748000 0.039503
4.749000 0.046811
4.750000 0.037843
4.751000 0.043649
4.752000 0.039019
4.753000 0.046201
4.754000 0.030698
4.755000 0.036293
4.756000 0.039642
4.757000 0.040892
4.758000 0.035245
4.759000 0.035157
4.760000 0.037789
4.761000 0.029537
4.762000 0.044424
4.763000 0.047328
4.764000 0.052182
4.765000 0.048797
4.766000 0.047890
4.767000 0.042986
4.768000 0.055159
4.769000 0.046488
4.770000 0.052582
4.771000 0.046176
4.772000 0.048920
4.773000 0.050192
4.774000 0.045008
4.775000 0.047806
4.776000 0.033952
4.777000 0.041769
4.778000 0.039318
4.779000 0.047286
4.780000 0.036344
4.781000 0.033714
4.782000 0.040648
4.783000 0.041699
4.784000 0.042985
4.785000 0.042120
4.786000 0.046143
4.787000 0.042747
4.788000 0.050931
4.789000 0.047255
4.790000 0.053943
4.791000 0.054521
4.792000 0.046607
4.793000 0.045703
4.794000 0.037739
4.795000 0.037995
4.796000 0.033728
4.797000 0.036603
4.798000 0.044047
4.799000 0.038293
4.800000 0.041132
4.801000 0.046862
4.802000 0.042689
4.803000 0.052818
4.804000 0.049647
4.805000 0.056389
4.806000 0.057841
4.807000 0.056020
4.808000 0.049619
4.809000 0.056211
4.810000 0.054253
4.811000 0.056456
4.812000 0.055595
4.813000 0.047507
4.814000 0.041620
4.815000 0.037286
4.816000 0.047879
4.817000 0.033761
4.818000 0.044398
4.819000 0.034110
4.820000 0.039532
4.821000 0.041467
4.822000 0.051706
4.823000 0.056156
4.824000 0.051350
4.825000 0.054952
4.826000 0.050540
4.827000 0.052119
4.828000 0.060516
4.829000 0.057997
4.830000 0.052152
4.831000 0.057788
4.832000 0.056587
4.833000 0.046889
4.834000 0.046016
4.835000 0.049638
4.836000 0.047235
4.837000 0.044549
4.838000 0.033170
4.839000 0.040877
4.840000 0.029643
4.841000 0.013548
4.842000 0.015961
4.843000 0.017540
4.844000 0.006972
4.845000 0.005107
4.846000 0.003320
4.847000 -0.008810
4.848000 0.001188
4.849000 0.000805
4.850000 0.001002
4.851000 -0.007837
4.852000 0.002507
4.853000 -0.002653
4.854000 0.007889
4.855000 0.010266
4.856000 0.019868
4.857000 0.030570
4.858000 0.051464
4.859000 0.067799
4.860000 0.077604
4.861000 0.102104
4.862000 0.112178
4.863000 0.111955
4.864000 0.118819
4.865000 0.137148
4.866000 0.157927
4.867000 0.175764
4.868000 0.186282
4.869000 0.223900
4.870000 0.253093
4.871000 0.262201
4.872000 0.285111
4.873000 0.336128
4.874000 0.354249
4.875000 0.383341
4.876000 0.394536
4.877000 0.430714
4.878000 0.501987
4.879000 0.526101
4.880000 0.505176
4.881000 0.500553
4.882000 0.495379
4.883000 0.465849
4.884000 0.454056
4.885000 0.421923
4.886000 0.398908
4.887000 0.372518
4.888000 0.340915
4.889000 0.292966
4.890000 0.259010
4.891000 0.221567
4.892000 0.185691
4.893000 0.157614
4.894000 0.123180
4.895000 0.095498
4.896000 0.084519
4.897000 0.075787
4.898000 0.054656
4.899000 0.060374
4.900000 0.065467
4.901000 0.053534
4.902000 0.072160
4.903000 0.074685
4.904000 0.090370
4.905000 0.097789
4.906000 0.085556
4.907000 0.093048
4.908000 0.096281
4.909000 0.103807
4.910000 0.100670
4.911000 0.100842
4.912000 0.107322
4.913000 0.102094
4.914000 0.090290
4.915000 0.090747
4.916000 0.096244
4.917000 0.095948
4.918000 0.091798
4.919000 0.083548
4.920000 0.079499
4.921000 0.083901
4.922000 0.086719
4.923000 0.089141
4.924000 0.082874
4.925000 0.089019
4.926000 0.086787
4.927000 0.086122
4.928000 0.088340
4.929000 0.095809
4.930000 0.096699
4.931000 0.077142
4.932000 0.078591
4.933000 0.074313
4.934000 0.074151
4.935000 0.080009
4.936000 0.070940
4.937000 0.070546
4.938000 0.077938
4.939000 0.074388
4.940000 0.073277
4.941000 0.081786
4.942000 0.075333
4.943000 0.084707
4.944000 0.083681
4.945000 0.082369
4.946000 0.088303
4.947000 0.096952
4.948000 0.085798
4.949000 0.082989
4.950000 0.094422
4.951000 0.083641
4.952000 0.091802
4.953000 0.080920
4.954000 0.083152
4.955000 0.085373
4.956000 0.078591
4.957000 0.072548
4.958000 0.074671
4.959000 0.089430
4.960000 0.077108
4.961000 0.073098
4.962000 0.071673
4.963000 0.084351
4.964000 0.077934
4.965000 0.082993
4.966000 0.078077
4.967000 0.084600
4.968000 0.090050
4.969000 0.082206
4.970000 0.079725
4.971000 0.084633
4.972000 0.075742
4.973000 0.082781
4.974000 0.084330
4.975000 0.081599
4.976000 0.080019
4.977000 0.081728
4.978000 0.078981
4.979000 0.070021
4.980000 0.077086
4.981000 0.069266
4.982000 0.083789
4.983000 0.075392
4.984000 0.079216
4.985000 0.088111
4.986000 0.094041
4.987000 0.088629
4.988000 0.082517
4.989000 0.090890
4.990000 0.088834
4.991000 0.087152
4.992000 0.080522
4.993000 0.083585
4.994000 0.075023
4.995000 0.081018
4.996000 0.059602
4.997000 0.067408
4.998000 0.079427
4.999000 0.068028
5.000000 0.067830
5.001000 0.057614
5.002000 0.073766
5.003000 0.080652
5.004000 0.075729
5.005000 0.083915
5.006000 0.092749
5.007000 0.087518
5.008000 0.093447
5.009000 0.094296
5.010000 0.086548
5.011000 0.088211
5.012000 0.075177
5.013000 0.081723
5.014000 0.072713
5.015000 0.070695
5.016000 0.076287
5.017000 0.068833
5.018000 0.075387
5.019000 0.074768
5.020000 0.070727
5.021000 0.070662
5.022000 0.073820
5.023000 0.075163
5.024000 0.079309
5.025000 0.093316
5.026000 0.088994
5.027000 0.084027
5.028000 0.087183
5.029000 0.088454
5.030000 0.104460
5.031000 0.093642
5.032000 0.088808
5.033000 0.091874
5.034000 0.086751
5.035000 0.074096
5.036000 0.077142
5.037000 0.072226
5.038000 0.070446
5.039000 0.083230
5.040000 0.072506
5.041000 0.074142
5.042000 0.089145
5.043000 0.082780
5.044000 0.086586
5.045000 0.095333
5.046000 0.092069
5.047000 0.094740
5.048000 0.095140
5.049000 0.089511
5.050000 0.089305
5.051000 0.098888
5.052000 0.094082
5.053000 0.089529
5.054000 0.085492
5.055000 0.088879
5.056000 0.093900
5.057000 0.087970
5.058000 0.091105
5.059000 0.086758
5.060000 0.086759
5.061000 0.087223
5.062000 0.094678
5.063000 0.093074
5.064000 0.106888
5.065000 0.103893
5.066000 0.096640
5.067000 0.103867
5.068000 0.104979
5.069000 0.107593
5.070000 0.100790
5.071000 0.101227
5.072000 0.096614
5.073000 0.112167
5.074000 0.108608
5.075000 0.100558
5.076000 0.112325
5.077000 0.097153
5.078000 0.105387
5.079000 0.101695
5.080000 0.108363
5.081000 0.106010
5.082000 0.111356
5.083000 0.099287
5.084000 0.119126
5.085000 0.122214
5.086000 0.114776
5.087000 0.124026
5.088000 0.120278
5.089000 0.118249
5.090000 0.121625
5.091000 0.126013
5.092000 0.124514
5.093000 0.120947
5.094000 0.112627
5.095000 0.115546
5.096000 0.124412
5.097000 0.112652
5.098000 0.108682
5.099000 0.105993
5.100000 0.115773
5.101000 0.133326
5.102000 0.135309
5.103000 0.121320
5.104000 0.129502
5.105000 0.139667
5.106000 0.127966
5.107000 0.139117
5.108000 0.133071
5.109000 0.142704
5.110000 0.137701
5.111000 0.129408
5.112000 0.129683
5.113000 0.143306
5.114000 0.128376
5.115000 0.124824
5.116000 0.127185
5.117000 0.131919
5.118000 0.123377
5.119000 0.120172
5.120000 0.124756
5.121000 0.132369
5.122000 0.123121
5.123000 0.122989
5.124000 0.131517
5.125000 0.126059
5.126000 0.132551
5.127000 0.138928
5.128000 0.128943
5.129000 0.138576
5.130000 0.122225
5.131000 0.126040
5.132000 0.122193
5.133000 0.125723
5.134000 0.114236
5.135000 0.118476
5.136000 0.103831
5.137000 0.100938
5.138000 0.105383
5.139000 0.109372
5.140000 0.107896
5.141000 0.113647
5.142000 0.112711
5.143000 0.097390
5.144000 0.099225
5.145000 0.101998
5.146000 0.118173
5.147000 0.121236
5.148000 0.112429
5.149000 0.111960
5.150000 0.113432
5.151000 0.098914
5.152000 0.105492
5.153000 0.110058
5.154000 0.101840
5.155000 0.101532
5.156000 0.093385
5.157000 0.092955
5.158000 0.097797
5.159000 0.090615
5.160000 0.088014
5.161000 0.090085
5.162000 0.089332
5.163000 0.085672
5.164000 0.101619
5.165000 0.092759
5.166000 0.103138
5.167000 0.096071
5.168000 0.101148
5.169000 0.090307
5.170000 0.097826
5.171000 0.087576
5.172000 0.079677
5.173000 0.093459
5.174000 0.093493
5.175000 0.096557
5.176000 0.083747
5.177000 0.081589
5.178000 0.077871
5.179000 0.086122
5.180000 0.080425
5.181000 0.088771
5.182000 0.089455
5.183000 0.086090
5.184000 0.079541
5.185000 0.080700
5.186000 0.107633
5.187000 0.095074
5.188000 0.103381
5.189000 0.093453
5.190000 0.100324
5.191000 0.090618
5.192000 0.090835
5.193000 0.097494
5.194000 0.092393
5.195000 0.097333
5.196000 0.080844
5.197000 0.083170
5.198000 0.088191
5.199000 0.094323
5.200000 0.080573
5.201000 0.086129
5.202000 0.087249
5.203000 0.082249
5.204000 0.080303
5.205000 0.083295
5.206000 0.095581
5.207000 0.091444
5.208000 0.097343
5.209000 0.099415
5.210000 0.094482
5.211000 0.085932
5.212000 0.085317
5.213000 0.094232
5.214000 0.085484
5.215000 0.096126
5.216000 0.076512
5.217000 0.079003
5.218000 0.081988
5.219000 0.084731
5.220000 0.082517
5.221000 0.084592
5.222000 0.081916
5.223000 0.087406
5.224000 0.083467
5.225000 0.087977
5.226000 0.098910
5.227000 0.079218
5.228000 0.079854
5.229000 0.105160
5.230000 0.102206
5.231000 0.098889
5.232000 0.083456
5.233000 0.090546
5.234000 0.093851
5.235000 0.096107
5.236000 0.093869
5.237000 0.091167
5.238000 0.084964
5.239000 0.081374
5.240000 0.088919
5.241000 0.087551
5.242000 0.090218
5.243000 0.094853
5.244000 0.089219
5.245000 0.088491
5.246000 0.092855
5.247000 0.100328
5.248000 0.099541
5.249000 0.106187
5.250000 0.099291
5.251000 0.102942
5.252000 0.091099
5.253000 0.090489
5.254000 0.094466
5.255000 0.097422
5.256000 0.091407
5.257000 0.094162
5.258000 0.086069
5.259000 0.082901
5.260000 0.101243
5.261000 0.093171
5.262000 0.093933
5.263000 0.096206
5.264000 0.097287
5.265000 0.088999
5.266000 0.096182
5.267000 0.107453
5.268000 0.100919
5.269000 0.119857
5.270000 0.106487
5.271000 0.099986
5.272000 0.105919
5.273000 0.111343
5.274000 0.102045
5.275000 0.103292
5.276000 0.100729
5.277000 0.104701
5.278000 0.101275
5.279000 0.085661
5.280000 0.104550
5.281000 0.090803
5.282000 0.102140
5.283000 0.097773
5.284000 0.093518
5.285000 0.099576
5.286000 0.098334
5.287000 0.104279
5.288000 0.104925
5.289000 0.111997
5.290000 0.105273
5.291000 0.102227
5.292000 0.099459
5.293000 0.092082
5.294000 0.102440
5.295000 0.098486
5.296000 0.099362
5.297000 0.093613
5.298000 0.097870
5.299000 0.096343
5.300000 0.099082
5.301000 0.093831
5.302000 0.100628
5.303000 0.098052
5.304000 0.103472
5.305000 0.106905
5.306000 0.103492
5.307000 0.114950
5.308000 0.108246
5.309000 0.109132
5.310000 0.112054
5.311000 0.108770
5.312000 0.101866
5.313000 0.101525
5.314000 0.110150
5.315000 0.105986
5.316000 0.101654
5.317000 0.095365
5.318000 0.100568
5.319000 0.088637
5.320000 0.094945
5.321000 0.096341
5.322000 0.099793
5.323000 0.100022
5.324000 0.093994
5.325000 0.095020
5.326000 0.102455
5.327000 0.105072
5.328000 0.107279
5.329000 0.102335
5.330000 0.110309
5.331000 0.112873
5.332000 0.105492
5.333000 0.104730
5.334000 0.096648
5.335000 0.108829
5.336000 0.097146
5.337000 0.094794
5.338000 0.089051
5.339000 0.102421
5.340000 0.088973
5.341000 0.094545
5.342000 0.099977
5.343000 0.098330
5.344000 0.098182
5.345000 0.101842
5.346000 0.109484
5.347000 0.112424
5.348000 0.106847
5.349000 0.103613
5.350000 0.110046
5.351000 0.103559
5.352000 0.094744
5.353000 0.101297
5.354000 0.110071
5.355000 0.105687
5.356000 0.093596
5.357000 0.098742
5.358000 0.095958
5.359000 0.096694
5.360000 0.084883
5.361000 0.084995
5.362000 0.098897
5.363000 0.097251
5.364000 0.092252
5.365000 0.093599
5.366000 0.102754
5.367000 0.106656
5.368000 0.103897
5.369000 0.096856
5.370000 0.108741
5.371000 0.105243
5.372000 0.097043
5.373000 0.090995
5.374000 0.099615
5.375000 0.098875
5.376000 0.082467
5.377000 0.087014
5.378000 0.077470
5.379000 0.084747
5.380000 0.081462
5.381000 0.096908
5.382000 0.089470
5.383000 0.098742
5.384000 0.094274
5.385000 0.102115
5.386000 0.109274
5.387000 0.098428
5.388000 0.103673
5.389000 0.104079
5.390000 0.106084
5.391000 0.115040
5.392000 0.105796
5.393000 0.105542
5.394000 0.119717
5.395000 0.114678
5.396000 0.110758
5.397000 0.118912
5.398000 0.105653
5.399000 0.115653
5.400000 0.113161
5.401000 0.115109
5.402000 0.131065
5.403000 0.130104
5.404000 0.127852
5.405000 0.132031
5.406000 0.131856
5.407000 0.129265
5.408000 0.125413
5.409000 0.128306
5.410000 0.132639
5.411000 0.123600
5.412000 0.112757
5.413000 0.115584
5.414000 0.116758
5.415000 0.107649
5.416000 0.104549
5.417000 0.104804
5.418000 0.109669
5.419000 0.104381
5.420000 0.104226
5.421000 0.098757
5.422000 0.109750
5.423000 0.111097
5.424000 0.108546
5.425000 0.107018
5.426000 0.118583
5.427000 0.117016
5.428000 0.119191
5.429000 0.114145
5.430000 0.112274
5.431000 0.114247
5.432000 0.099118
5.433000 0.095427
5.434000 0.095047
5.435000 0.090241
5.436000 0.079542
5.437000 0.086995
5.438000 0.077660
5.439000 0.078282
5.440000 0.095290
5.441000 0.081436
5.442000 0.096704
5.443000 0.091917
5.444000 0.086073
5.445000 0.090027
5.446000 0.107028
5.447000 0.104701
5.448000 0.106500
5.449000 0.105835
5.450000 0.104386
5.451000 0.110839
5.452000 0.103534
5.453000 0.094801
5.454000 0.099844
5.455000 0.096030
5.456000 0.097888
5.457000 0.096693
5.458000 0.091601
5.459000 0.095443
5.460000 0.103541
5.461000 0.095381
5.462000 0.100075
5.463000 0.098682
5.464000 0.098350
5.465000 0.095687
5.466000 0.107974
5.467000 0.099037
5.468000 0.096392
5.469000 0.099611
5.470000 0.091516
5.471000 0.092072
5.472000 0.082562
5.473000 0.081389
5.474000 0.083391
5.475000 0.087884
5.476000 0.084426
5.477000 0.081364
5.478000 0.084738
5.479000 0.079357
5.480000 0.085929
5.481000 0.084078
5.482000 0.090504
5.483000 0.088364
5.484000 0.086980
5.485000 0.089397
5.486000 0.096756
5.487000 0.091482
5.488000 0.088242
5.489000 0.101143
5.490000 0.096308
5.491000 0.088956
5.492000 0.081232
5.493000 0.083986
5.494000 0.081888
5.495000 0.079625
5.496000 0.090813
5.497000 0.090798
5.498000 0.087932
5.499000 0.081030
5.500000 0.086373
5.501000 0.079406
5.502000 0.083236
5.503000 0.083563
5.504000 0.085564
5.505000 0.082720
5.506000 0.095446
5.507000 0.096670
5.508000 0.101464
5.509000 0.094685
5.510000 0.100382
5.511000 0.100107
5.512000 0.092905
5.513000 0.076148
5.514000 0.079136
5.515000 0.083873
5.516000 0.078150
5.517000 0.082464
5.518000 0.081915
5.519000 0.079922
5.520000 0.083471
5.521000 0.076883
5.522000 0.089645
5.523000 0.091209
5.524000 0.092563
5.525000 0.084145
5.526000 0.089540
5.527000 0.092212
5.528000 0.100986
5.529000 0.097646
5.530000 0.095582
5.531000 0.090846
5.532000 0.086705
5.533000 0.081705
5.534000 0.078675
5.535000 0.084654
5.536000 0.081686
5.537000 0.078540
5.538000 0.084767
5.539000 0.088868
5.540000 0.082053
5.541000 0.079289
5.542000 0.084500
5.543000 0.091779
5.544000 0.093897
5.545000 0.088114
5.546000 0.090896
5.547000 0.092435
5.548000 0.097058
5.549000 0.090892
5.550000 0.101694
5.551000 0.089165
5.552000 0.089330
5.553000 0.082418
5.554000 0.084670
5.555000 0.083807
5.556000 0.074942
5.557000 0.083641
5.558000 0.083133
5.559000 0.082639
5.560000 0.075464
5.561000 0.077556
5.562000 0.074705
5.563000 0.075497
5.564000 0.074101
5.565000 0.068523
5.566000 0.061077
5.567000 0.053442
5.568000 0.043847
5.569000 0.027522
5.570000 0.028405
5.571000 0.024058
5.572000 0.021165
5.573000 0.021426
5.574000 0.022060
5.575000 0.020802
5.576000 0.020701
5.577000 0.028114
5.578000 0.030540
5.579000 0.049305
5.580000 0.048413
5.581000 0.068026
5.582000 0.077560
5.583000 0.100140
5.584000 0.118337
5.585000 0.126525
5.586000 0.138402
5.587000 0.153336
5.588000 0.163305
5.589000 0.173273
5.590000 0.186697
5.591000 0.210417
5.592000 0.230495
5.593000 0.260192
5.594000 0.277022
5.595000 0.297770
5.596000 0.330446
5.597000 0.372395
5.598000 0.399138
5.599000 0.423849
5.600000 0.455255
5.601000 0.519527
5.602000 0.558519
5.603000 0.553092
5.604000 0.541541
5.605000 0.526401
5.606000 0.502441
5.607000 0.491831
5.608000 0.471281
5.609000 0.443604
5.610000 0.416154
5.611000 0.377405
5.612000 0.344789
5.613000 0.304969
5.614000 0.275929
5.615000 0.250048
5.616000 0.217315
5.617000 0.199774
5.618000 0.155756
5.619000 0.145442
5.620000 0.127323
5.621000 0.111665
5.622000 0.099894
5.623000 0.091963
5.624000 0.099450
5.625000 0.096819
5.626000 0.102068
5.627000 0.109700
5.628000 0.118421
5.629000 0.121487
5.630000 0.115808
5.631000 0.118418
5.632000 0.122066
5.633000 0.128237
5.634000 0.124105
5.635000 0.120381
5.636000 0.111633
5.637000 0.114399
5.638000 0.109162
5.639000 0.114268
5.640000 0.123956
5.641000 0.116420
5.642000 0.104756
5.643000 0.108969
5.644000 0.115618
5.645000 0.116939
5.646000 0.114378
5.647000 0.106937
5.648000 0.109497
5.649000 0.122185
5.650000 0.104126
5.651000 0.109422
5.652000 0.102278
5.653000 0.110922
5.654000 0.107577
5.655000 0.101651
5.656000 0.095409
5.657000 0.106287
5.658000 0.098161
5.659000 0.092524
5.660000 0.102742
5.661000 0.096308
5.662000 0.102273
5.663000 0.098263
5.664000 0.109071
5.665000 0.100728
5.666000 0.098545
5.667000 0.100695
5.668000 0.098070
5.669000 0.102054
5.670000 0.104028
5.671000 0.107631
5.672000 0.101045
5.673000 0.097985
5.674000 0.092581
5.675000 0.091856
5.676000 0.097095
5.677000 0.094653
5.678000 0.090801
5.679000 0.087241
5.680000 0.085902
5.681000 0.088648
5.682000 0.095520
5.683000 0.091663
5.684000 0.097749
5.685000 0.095494
5.686000 0.093079
5.687000 0.104748
5.688000 0.103552
5.689000 0.109183
5.690000 0.103104
5.691000 0.108484
5.692000 0.099870
5.693000 0.102006
5.694000 0.097139
5.695000 0.088895
5.696000 0.093739
5.697000 0.089942
5.698000 0.094000
5.699000 0.087836
5.700000 0.089790
5.701000 0.081309
5.702000 0.100466
5.703000 0.086104
5.704000 0.096861
5.705000 0.097454
5.706000 0.092322
5.707000 0.103902
5.708000 0.097697
5.709000 0.098087
5.710000 0.097399
5.711000 0.100440
5.712000 0.095445
5.713000 0.100283
5.714000 0.090992
5.715000 0.084932
5.716000 0.089612
5.717000 0.079417
5.718000 0.079467
5.719000 0.083177
5.720000 0.079735
5.721000 0.079451
5.722000 0.082229
5.723000 0.080431
5.724000 0.091195
5.725000 0.087557
5.726000 0.086976
5.727000 0.094403
5.728000 0.090813
5.729000 0.099039
5.730000 0.103264
5.731000 0.097324
5.732000 0.089574
5.733000 0.090303
5.734000 0.085315
5.735000 0.086309
5.736000 0.087753
5.737000 0.079811
5.738000 0.086411
5.739000 0.084359
5.740000 0.077383
5.741000 0.079097
5.742000 0.092691
5.743000 0.082357
5.744000 0.090858
5.745000 0.094270
5.746000 0.091638
5.747000 0.092484
5.748000 0.096125
5.749000 0.092091
5.750000 0.100540
5.751000 0.103811
5.752000 0.090118
5.753000 0.101253
5.754000 0.088259
5.755000 0.082523
5.756000 0.093209
5.757000 0.084831
5.758000 0.074956
5.759000 0.077231
5.760000 0.087958
5.761000 0.080718
5.762000 0.090787
5.763000 0.085548
5.764000 0.084903
5.765000 0.094071
5.766000 0.092962
5.767000 0.092148
5.768000 0.097614
5.769000 0.094411
5.770000 0.110083
5.771000 0.109374
5.772000 0.094979
5.773000 0.099267
5.774000 0.097616
5.775000 0.087643
5.776000 0.103154
5.777000 0.092514
5.778000 0.085431
5.779000 0.090609
5.780000 0.093017
5.781000 0.082299
5.782000 0.097067
5.783000 0.092967
5.784000 0.085509
5.785000 0.104418
5.786000 0.093120
5.787000 0.098843
5.788000 0.105319
5.789000 0.106010
5.790000 0.101475
5.791000 0.101766
5.792000 0.098427
5.793000 0.106355
5.794000 0.101862
5.795000 0.088185
5.796000 0.101281
5.797000 0.097516
5.798000 0.093328
5.799000 0.091532
5.800000 0.098260
5.801000 0.099210
5.802000 0.101118
5.803000 0.092880
5.804000 0.094670
5.805000 0.103691
5.806000 0.106867
5.807000 0.103098
5.808000 0.117382
5.809000 0.118228
5.810000 0.107507
5.811000 0.110407
5.812000 0.110112
5.813000 0.115162
5.814000 0.121750
5.815000 0.096095
5.816000 0.111227
5.817000 0.106401
5.818000 0.100033
5.819000 0.099033
5.820000 0.108393
5.821000 0.107166
5.822000 0.110728
5.823000 0.105444
5.824000 0.109201
5.825000 0.113866
5.826000 0.115134
5.827000 0.115119
5.828000 0.123689
5.829000 0.128416
5.830000 0.121883
5.831000 0.119969
5.832000 0.119045
5.833000 0.118118
5.834000 0.121189
5.835000 0.113461
5.836000 0.119591
5.837000 0.113916
5.838000 0.109629
5.839000 0.113849
5.840000 0.118129
5.841000 0.116571
5.842000 0.119377
5.843000 0.101765
5.844000 0.116053
5.845000 0.127327
5.846000 0.119919
5.847000 0.114055
5.848000 0.129505
5.849000 0.115612
5.850000 0.110388
5.851000 0.118377
5.852000 0.117402
5.853000 0.119311
5.854000 0.111229
5.855000 0.109813
5.856000 0.118380
5.857000 0.117022
5.858000 0.113394
5.859000 0.108887
5.860000 0.100756
5.861000 0.102163
5.862000 0.104526
5.863000 0.109019
5.864000 0.111042
5.865000 0.117986
5.866000 0.104268
5.867000 0.104487
5.868000 0.111399
5.869000 0.112225
5.870000 0.107483
5.871000 0.098609
5.872000 0.096888
5.873000 0.100739
5.874000 0.099976
5.875000 0.083350
5.876000 0.093197
5.877000 0.091503
5.878000 0.092081
5.879000 0.084006
5.880000 0.080576
5.881000 0.085882
5.882000 0.085831
5.883000 0.082967
5.884000 0.082697
5.885000 0.096374
5.886000 0.084421
5.887000 0.085255
5.888000 0.092842
5.889000 0.081176
5.890000 0.088604
5.891000 0.088199
5.892000 0.079849
5.893000 0.095217
5.894000 0.096892
5.895000 0.073315
5.896000 0.082525
5.897000 0.076773
5.898000 0.072653
5.899000 0.073444
5.900000 0.071114
5.901000 0.078486
5.902000 0.083998
5.903000 0.074088
5.904000 0.073243
5.905000 0.081399
5.906000 0.079253
5.907000 0.087300
5.908000 0.080999
5.909000 0.084213
5.910000 0.091544
5.911000 0.084402
5.912000 0.075755
5.913000 0.076478
5.914000 0.083316
5.915000 0.071222
5.916000 0.068920
5.917000 0.068060
5.918000 0.061331
5.919000 0.063047
5.920000 0.061844
5.921000 0.065690
5.922000 0.063151
5.923000 0.066159
5.924000 0.062263
5.925000 0.073343
5.926000 0.067825
5.927000 0.079392
5.928000 0.080313
5.929000 0.070479
5.930000 0.083917
5.931000 0.080289
5.932000 0.074041
5.933000 0.079251
5.934000 0.087828
5.935000 0.072302
5.936000 0.080041
5.937000 0.069183
5.938000 0.068156
5.939000 0.062974
5.940000 0.068787
5.941000 0.067643
5.942000 0.075350
5.943000 0.065828
5.944000 0.067391
5.945000 0.070277
5.946000 0.071017
5.947000 0.082410
5.948000 0.080356
5.949000 0.082890
5.950000 0.085002
5.951000 0.087489
5.952000 0.079144
5.953000 0.084094
5.954000 0.071742
5.955000 0.071131
5.956000 0.069727
5.957000 0.057066
5.958000 0.069651
5.959000 0.073581
5.960000 0.069603
5.961000 0.072335
5.962000 0.079860
5.963000 0.082506
5.964000 0.069229
5.965000 0.079988
5.966000 0.067659
5.967000 0.087557
5.968000 0.087446
5.969000 0.092452
5.970000 0.085483
5.971000 0.095127
5.972000 0.085260
5.973000 0.092027
5.974000 0.095146
5.975000 0.082559
5.976000 0.094648
5.977000 0.071278
5.978000 0.069590
5.979000 0.080011
5.980000 0.085895
5.981000 0.076347
5.982000 0.094563
5.983000 0.082404
5.984000 0.069530
5.985000 0.086071
5.986000 0.077827
5.987000 0.096992
5.988000 0.096493
5.989000 0.094321
5.990000 0.088150
5.991000 0.100332
5.992000 0.080228
5.993000 0.088454
5.994000 0.089702
5.995000 0.085353
5.996000 0.091629
5.997000 0.080476
5.998000 0.074886
5.999000 0.077059
6.000000 0.089655
6.001000 0.087228
6.002000 0.088014
6.003000 0.087031
6.004000 0.080592
6.005000 0.087364
6.006000 0.086533
6.007000 0.097720
6.008000 0.090255
6.009000 0.099325
6.010000 0.094208
6.011000 0.097351
6.012000 0.089507
6.013000 0.088779
6.014000 0.093537
6.015000 0.093496
6.016000 0.094586
6.017000 0.080180
6.018000 0.083748
6.019000 0.079348
6.020000 0.086712
6.021000 0.077079
6.022000 0.083000
6.023000 0.084426
6.024000 0.074898
6.025000 0.087352
6.026000 0.090766
6.027000 0.091898
6.028000 0.088868
6.029000 0.096150
6.030000 0.090426
6.031000 0.092479
6.032000 0.092269
6.033000 0.089498
6.034000 0.088043
6.035000 0.090269
6.036000 0.086369
6.037000 0.080365
6.038000 0.077894
6.039000 0.082301
6.040000 0.078466
6.041000 0.076097
6.042000 0.082178
6.043000 0.094905
6.044000 0.078997
6.045000 0.084425
6.046000 0.077419
6.047000 0.084353
6.048000 0.089795
6.049000 0.093674
6.050000 0.096694
6.051000 0.086386
6.052000 0.080184
6.053000 0.082898
6.054000 0.083814
6.055000 0.086743
6.056000 0.081580
6.057000 0.075689
6.058000 0.084991
6.059000 0.078708
6.060000 0.078644
6.061000 0.077730
6.062000 0.071263
6.063000 0.086074
6.064000 0.075637
6.065000 0.081701
6.066000 0.082944
6.067000 0.083414
6.068000 0.079053
6.069000 0.087029
6.070000 0.102417
6.071000 0.094375
6.072000 0.087832
6.073000 0.093682
6.074000 0.088055
6.075000 0.081962
6.076000 0.088998
6.077000 0.077761
6.078000 0.080153
6.079000 0.079783
6.080000 0.075196
6.081000 0.082987
6.082000 0.075187
6.083000 0.075268
6.084000 0.075748
6.085000 0.070527
6.086000 0.073335
6.087000 0.084821
6.088000 0.085941
6.089000 0.089564
6.090000 0.088742
6.091000 0.077960
6.092000 0.084752
6.093000 0.076167
6.094000 0.084960
6.095000 0.081380
6.096000 0.080562
6.097000 0.078324
6.098000 0.075129
6.099000 0.074242
6.100000 0.070912
6.101000 0.085162
6.102000 0.078952
6.103000 0.081481
6.104000 0.072080
6.105000 0.070454
6.106000 0.067793
6.107000 0.077311
6.108000 0.083881
6.109000 0.081301
6.110000 0.087548
6.111000 0.080418
6.112000 0.076528
6.113000 0.065861
6.114000 0.074793
6.115000 0.071230
6.116000 0.081412
6.117000 0.073223
6.118000 0.073227
6.119000 0.076420
6.120000 0.073941
6.121000 0.079236
6.122000 0.080255
6.123000 0.093014
6.124000 0.087509
6.125000 0.088246
6.126000 0.090694
6.127000 0.089596
6.128000 0.107707
6.129000 0.108157
6.130000 0.108735
6.131000 0.108073
6.132000 0.109332
6.133000 0.109336
6.134000 0.105544
6.135000 0.115428
6.136000 0.112014
6.137000 0.104399
6.138000 0.099719
6.139000 0.103453
6.140000 0.103811
6.141000 0.093926
6.142000 0.093674
6.143000 0.099786
6.144000 0.097042
6.145000 0.077821
6.146000 0.083782
6.147000 0.082134
6.148000 0.096502
6.149000 0.099687
6.150000 0.108721
6.151000 0.113507
6.152000 0.113262
6.153000 0.094929
6.154000 0.094907
6.155000 0.099272
6.156000 0.104129
6.157000 0.094661
6.158000 0.079481
6.159000 0.083669
6.160000 0.088751
6.161000 0.074568
6.162000 0.070199
6.163000 0.073478
6.164000 0.076412
6.165000 0.082006
6.166000 0.077732
6.167000 0.081505
6.168000 0.089906
6.169000 0.081059
6.170000 0.076483
6.171000 0.084959
6.172000 0.080732
6.173000 0.076959
6.174000 0.069362
6.175000 0.084415
6.176000 0.085184
6.177000 0.079258
6.178000 0.076446
6.179000 0.076391
6.180000 0.081325
6.181000 0.063227
6.182000 0.073481
6.183000 0.087234
6.184000 0.085199
6.185000 0.076980
6.186000 0.085537
6.187000 0.088566
6.188000 0.089782
6.189000 0.087860
6.190000 0.085134
6.191000 0.099814
6.192000 0.100798
6.193000 0.074515
6.194000 0.063896
6.195000 0.075087
6.196000 0.072514
6.197000 0.059896
6.198000 0.058488
6.199000 0.059180
6.200000 0.062387
6.201000 0.052859
6.202000 0.055236
6.203000 0.062429
6.204000 0.059132
6.205000 0.059835
6.206000 0.056840
6.207000 0.067212
6.208000 0.069541
6.209000 0.071189
6.210000 0.073022
6.211000 0.077061
6.212000 0.074341
6.213000 0.070333
6.214000 0.067807
6.215000 0.066441
6.216000 0.060085
6.217000 0.064590
6.218000 0.065174
6.219000 0.054125
6.220000 0.061242
6.221000 0.056836
6.222000 0.049707
6.223000 0.069460
6.224000 0.057583
6.225000 0.060529
6.226000 0.064393
6.227000 0.070969
6.228000 0.067048
6.229000 0.071806
6.230000 0.074155
6.231000 0.067242
6.232000 0.073360
6.233000 0.064646
6.234000 0.065623
6.235000 0.065219
6.236000 0.062039
6.237000 0.061416
6.238000 0.065270
6.239000 0.057842
6.240000 0.060060
6.241000 0.059290
6.242000 0.049931
6.243000 0.059458
6.244000 0.065638
6.245000 0.066650
6.246000 0.066955
6.247000 0.069600
6.248000 0.070030
6.249000 0.072163
6.250000 0.074222
6.251000 0.066852
6.252000 0.077716
6.253000 0.066165
6.254000 0.060797
6.255000 0.072933
6.256000 0.059331
6.257000 0.061622
6.258000 0.072388
6.259000 0.060064
6.260000 0.061296
6.261000 0.071149
6.262000 0.060117
6.263000 0.060947
6.264000 0.072820
6.265000 0.078689
6.266000 0.057738
6.267000 0.067498
6.268000 0.056693
6.269000 0.072622
6.270000 0.078968
6.271000 0.070372
6.272000 0.076070
6.273000 0.062603
6.274000 0.070287
6.275000 0.067785
6.276000 0.062293
6.277000 0.056101
6.278000 0.060643
6.279000 0.061412
6.280000 0.056964
6.281000 0.068218
6.282000 0.054792
6.283000 0.063807
6.284000 0.071653
6.285000 0.063973
6.286000 0.061554
6.287000 0.066891
6.288000 0.061308
6.289000 0.060454
6.290000 0.074821
6.291000 0.076268
6.292000 0.078065
6.293000 0.057589
6.294000 0.047242
6.295000 0.035049
6.296000 0.037278
6.297000 0.008383
6.298000 0.002853
6.299000 0.003002
6.300000 -0.006364
6.301000 -0.004929
6.302000 -0.010750
6.303000 -0.008987
6.304000 -0.007130
6.305000 0.005532
6.306000 0.005359
6.307000 0.012321
6.308000 0.018611
6.309000 0.033550
6.310000 0.047208
6.311000 0.040926
6.312000 0.066095
6.313000 0.069040
6.314000 0.070395
6.315000 0.078010
6.316000 0.093548
6.317000 0.108021
6.318000 0.120631
6.319000 0.140925
6.320000 0.154667
6.321000 0.179378
6.322000 0.204996
6.323000 0.233267
6.324000 0.259706
6.325000 0.284218
6.326000 0.325121
6.327000 0.369968
6.328000 0.399147
6.329000 0.415380
6.330000 0.472167
6.331000 0.532830
6.332000 0.551089
6.333000 0.528923
6.334000 0.515611
6.335000 0.491359
6.336000 0.475147
6.337000 0.445401
6.338000 0.417524
6.339000 0.405736
6.340000 0.367481
6.341000 0.335989
6.342000 0.313163
6.343000 0.282113
6.344000 0.266239
6.345000 0.238968
6.346000 0.213437
6.347000 0.197729
6.348000 0.180630
6.349000 0.147069
6.350000 0.119907
6.351000 0.105835
6.352000 0.088236
6.353000 0.077519
6.354000 0.077068
6.355000 0.077711
6.356000 0.076202
6.357000 0.073736
6.358000 0.071593
6.359000 0.081057
6.360000 0.085416
6.361000 0.080055
6.362000 0.088267
6.363000 0.097510
6.364000 0.095581
6.365000 0.106153
6.366000 0.096321
6.367000 0.110047
6.368000 0.096414
6.369000 0.100184
6.370000 0.092456
6.371000 0.103723
6.372000 0.096094
6.373000 0.091386
6.374000 0.086212
6.375000 0.071413
6.376000 0.078172
6.377000 0.073943
6.378000 0.071072
6.379000 0.067936
6.380000 0.069816
6.381000 0.066922
6.382000 0.075845
6.383000 0.073251
6.384000 0.080327
6.385000 0.080387
6.386000 0.077303
6.387000 0.075242
6.388000 0.079506
6.389000 0.080669
6.390000 0.071907
6.391000 0.081580
6.392000 0.074632
6.393000 0.074346
6.394000 0.069268
6.395000 0.067030
6.396000 0.052683
6.397000 0.057303
6.398000 0.069764
6.399000 0.056622
6.400000 0.051536
6.401000 0.051843
6.402000 0.073332
6.403000 0.066854
6.404000 0.063093
6.405000 0.070154
6.406000 0.070752
6.407000 0.077505
6.408000 0.066669
6.409000 0.074499
6.410000 0.080169
6.411000 0.075196
6.412000 0.065630
6.413000 0.061507
6.414000 0.069305
6.415000 0.066034
6.416000 0.060274
6.417000 0.060776
6.418000 0.063036
6.419000 0.059340
6.420000 0.058457
6.421000 0.060607
6.422000 0.062778
6.423000 0.065397
6.424000 0.071301
6.425000 0.068303
6.426000 0.068972
6.427000 0.065166
6.428000 0.062031
6.429000 0.076747
6.430000 0.076689
6.431000 0.067810
6.432000 0.068960
6.433000 0.068751
6.434000 0.064279
6.435000 0.056934
6.436000 0.052573
6.437000 0.058389
6.438000 0.066334
6.439000 0.055599
